#  t (ns) MSD (A^2) D = 1.6543e-06 3.99e-09 cm^2/s nu = 7.1311e-01 1.31e-03
0.000000    -0.000018
0.010002    12.912311
0.020004    20.533211
0.030006    26.995745
0.040009    32.758553
0.050011    37.975586
0.060013    42.815235
0.070015    47.325932
0.080017    51.554966
0.090019    55.564163
0.100021    59.368752
0.110023    62.991280
0.120026    66.449295
0.130028    69.779694
0.140030    72.992691
0.150032    76.100899
0.160034    79.096680
0.170036    81.976044
0.180038    84.789833
0.190041    87.562286
0.200043    90.258087
0.210045    92.902336
0.220047    95.490204
0.230049    98.009605
0.240051    100.488686
0.250053    102.904274
0.260056    105.268600
0.270058    107.594383
0.280060    109.878410
0.290062    112.121872
0.300064    114.311829
0.310066    116.467857
0.320068    118.604675
0.330070    120.716949
0.340073    122.798538
0.350075    124.815796
0.360077    126.824501
0.370079    128.818481
0.380081    130.769714
0.390083    132.705978
0.400085    134.634048
0.410088    136.541061
0.420090    138.409836
0.430092    140.269653
0.440094    142.086533
0.450096    143.908936
0.460098    145.681854
0.470100    147.457047
0.480103    149.211334
0.490105    150.958755
0.500107    152.693893
0.510109    154.423172
0.520111    156.187729
0.530113    157.921555
0.540115    159.636200
0.550117    161.337479
0.560120    163.024063
0.570122    164.692505
0.580124    166.345108
0.590126    168.010483
0.600128    169.674698
0.610130    171.339935
0.620132    172.938446
0.630135    174.551086
0.640137    176.150040
0.650139    177.762772
0.660141    179.341629
0.670143    180.915970
0.680145    182.472885
0.690147    184.027115
0.700150    185.565491
0.710152    187.110107
0.720154    188.642090
0.730156    190.173859
0.740158    191.664734
0.750160    193.178528
0.760162    194.649536
0.770164    196.116440
0.780167    197.570374
0.790169    199.030167
0.800171    200.487778
0.810173    201.918381
0.820175    203.360779
0.830177    204.809357
0.840179    206.232864
0.850182    207.650162
0.860184    209.048767
0.870186    210.420273
0.880188    211.789246
0.890190    213.106323
0.900192    214.464111
0.910194    215.820953
0.920197    217.195969
0.930199    218.551666
0.940201    219.908859
0.950203    221.241425
0.960205    222.585205
0.970207    223.894714
0.980209    225.258942
0.990211    226.610397
1.000214    227.931564
1.010216    229.253098
1.020218    230.566910
1.030220    231.880539
1.040222    233.182938
1.050224    234.483887
1.060226    235.756866
1.070229    237.042267
1.080231    238.333267
1.090233    239.612930
1.100235    240.884583
1.110237    242.154572
1.120239    243.446350
1.130241    244.729538
1.140244    246.008652
1.150246    247.272247
1.160248    248.544174
1.170250    249.804276
1.180252    251.063202
1.190254    252.319717
1.200256    253.578735
1.210258    254.844330
1.220261    256.111725
1.230263    257.377319
1.240265    258.639008
1.250267    259.934174
1.260269    261.225494
1.270271    262.512756
1.280273    263.815552
1.290276    265.096283
1.300278    266.373383
1.310280    267.629089
1.320282    268.872894
1.330284    270.134033
1.340286    271.393555
1.350288    272.642120
1.360291    273.868408
1.370293    275.145660
1.380295    276.422638
1.390297    277.661743
1.400299    278.899292
1.410301    280.114563
1.420303    281.286865
1.430305    282.492889
1.440308    283.671844
1.450310    284.890747
1.460312    286.115753
1.470314    287.326752
1.480316    288.521606
1.490318    289.742920
1.500320    290.975525
1.510323    292.178070
1.520325    293.377319
1.530327    294.571533
1.540329    295.790680
1.550331    297.013153
1.560333    298.216217
1.570335    299.436798
1.580338    300.642761
1.590340    301.833374
1.600342    303.034515
1.610344    304.240936
1.620346    305.403046
1.630348    306.569489
1.640350    307.764587
1.650352    308.921631
1.660355    310.083740
1.670357    311.253876
1.680359    312.441925
1.690361    313.639008
1.700363    314.842590
1.710365    316.014465
1.720367    317.191803
1.730370    318.377106
1.740372    319.552338
1.750374    320.731567
1.760376    321.910736
1.770378    323.069305
1.780380    324.245300
1.790382    325.438080
1.800385    326.612030
1.810387    327.782806
1.820389    328.970367
1.830391    330.139771
1.840393    331.295258
1.850395    332.441956
1.860397    333.593689
1.870399    334.778198
1.880402    335.957550
1.890404    337.139404
1.900406    338.310150
1.910408    339.506042
1.920410    340.680145
1.930412    341.822754
1.940414    342.980713
1.950417    344.134674
1.960419    345.300659
1.970421    346.456329
1.980423    347.619202
1.990425    348.808990
2.000427    349.967499
2.010429    351.140167
2.020432    352.292572
2.030434    353.468201
2.040436    354.635040
2.050438    355.768829
2.060440    356.882904
2.070442    358.032166
2.080444    359.168518
2.090446    360.308563
2.100449    361.446228
2.110451    362.599762
2.120453    363.719482
2.130455    364.829010
2.140457    365.958954
2.150459    367.075592
2.160461    368.189117
2.170464    369.274567
2.180466    370.359039
2.190468    371.469269
2.200470    372.564423
2.210472    373.661346
2.220474    374.759399
2.230476    375.847351
2.240479    376.938812
2.250481    378.055511
2.260483    379.136719
2.270485    380.244141
2.280487    381.336487
2.290489    382.450165
2.300491    383.554993
2.310493    384.676086
2.320496    385.801483
2.330498    386.912048
2.340500    388.028778
2.350502    389.155304
2.360504    390.282043
2.370506    391.356049
2.380508    392.476288
2.390511    393.567627
2.400513    394.663025
2.410515    395.742615
2.420517    396.851288
2.430519    397.907013
2.440521    398.965851
2.450523    399.984589
2.460526    400.997498
2.470528    402.036224
2.480530    403.049744
2.490532    404.074280
2.500534    405.086365
2.510536    406.131989
2.520538    407.184784
2.530540    408.228546
2.540543    409.291016
2.550545    410.327637
2.560547    411.382446
2.570549    412.433441
2.580551    413.509521
2.590553    414.589966
2.600555    415.667450
2.610558    416.739563
2.620560    417.797180
2.630562    418.847290
2.640564    419.877960
2.650566    420.925537
2.660568    421.959930
2.670570    423.010742
2.680573    424.032928
2.690575    425.051117
2.700577    426.064056
2.710579    427.085114
2.720581    428.132141
2.730583    429.171906
2.740585    430.222321
2.750587    431.250244
2.760590    432.253448
2.770592    433.299438
2.780594    434.328369
2.790596    435.362427
2.800598    436.399139
2.810600    437.445160
2.820602    438.495697
2.830605    439.521454
2.840607    440.549408
2.850609    441.563934
2.860611    442.578735
2.870613    443.622681
2.880615    444.680298
2.890617    445.723663
2.900620    446.782288
2.910622    447.808411
2.920624    448.841156
2.930626    449.877930
2.940628    450.914337
2.950630    451.945496
2.960632    452.988495
2.970634    454.026733
2.980637    455.052673
2.990639    456.086487
3.000641    457.081024
3.010643    458.065887
3.020645    459.081543
3.030647    460.068604
3.040649    461.075684
3.050652    462.078918
3.060654    463.085663
3.070656    464.120667
3.080658    465.126984
3.090660    466.129822
3.100662    467.106567
3.110664    468.130829
3.120667    469.161133
3.130669    470.193054
3.140671    471.196747
3.150673    472.202118
3.160675    473.246948
3.170677    474.261749
3.180679    475.295685
3.190681    476.342010
3.200684    477.397766
3.210686    478.475952
3.220688    479.535095
3.230690    480.568695
3.240692    481.611206
3.250694    482.649567
3.260696    483.702667
3.270699    484.750366
3.280701    485.752106
3.290703    486.753174
3.300705    487.761108
3.310707    488.797333
3.320709    489.820801
3.330711    490.852448
3.340714    491.896637
3.350716    492.936096
3.360718    493.985596
3.370720    495.056244
3.380722    496.105286
3.390724    497.145508
3.400726    498.157654
3.410728    499.193054
3.420731    500.254211
3.430733    501.295746
3.440735    502.346130
3.450737    503.409912
3.460739    504.451477
3.470741    505.504272
3.480743    506.567627
3.490746    507.632874
3.500748    508.684967
3.510750    509.746277
3.520752    510.789124
3.530754    511.823700
3.540756    512.854431
3.550758    513.864990
3.560760    514.869263
3.570763    515.872314
3.580765    516.868591
3.590767    517.897095
3.600769    518.890259
3.610771    519.865295
3.620773    520.871338
3.630775    521.878235
3.640778    522.881104
3.650780    523.905518
3.660782    524.924438
3.670784    525.957153
3.680786    526.996887
3.690788    528.039795
3.700790    529.056885
3.710793    530.047302
3.720795    531.043884
3.730797    532.023926
3.740799    533.007751
3.750801    534.030090
3.760803    535.004639
3.770805    535.976746
3.780807    536.946960
3.790810    537.954285
3.800812    538.941284
3.810814    539.919067
3.820816    540.880188
3.830818    541.830566
3.840820    542.800781
3.850822    543.761475
3.860825    544.705994
3.870827    545.672302
3.880829    546.636719
3.890831    547.603638
3.900833    548.556396
3.910835    549.531311
3.920837    550.494202
3.930840    551.471680
3.940842    552.457336
3.950844    553.424438
3.960846    554.417847
3.970848    555.389404
3.980850    556.366943
3.990852    557.355408
4.000854    558.309753
4.010857    559.303528
4.020859    560.298523
4.030861    561.261353
4.040863    562.231628
4.050865    563.200378
4.060867    564.153931
4.070869    565.124146
4.080872    566.071289
4.090874    567.004822
4.100876    567.942871
4.110878    568.880432
4.120880    569.821289
4.130882    570.724243
4.140884    571.663208
4.150887    572.623352
4.160889    573.574341
4.170891    574.531860
4.180893    575.482605
4.190895    576.435059
4.200897    577.402161
4.210899    578.358826
4.220901    579.329590
4.230904    580.313416
4.240906    581.283936
4.250908    582.225525
4.260910    583.185120
4.270912    584.146851
4.280914    585.108459
4.290916    586.066101
4.300919    587.022949
4.310921    588.008179
4.320923    588.971802
4.330925    589.955750
4.340927    590.899780
4.350929    591.826172
4.360931    592.756348
4.370934    593.695068
4.380936    594.640991
4.390938    595.577942
4.400940    596.546143
4.410942    597.502686
4.420944    598.456360
4.430946    599.432251
4.440948    600.357788
4.450951    601.285278
4.460953    602.204651
4.470955    603.123169
4.480957    604.050232
4.490959    604.960449
4.500961    605.890991
4.510963    606.813110
4.520966    607.721313
4.530968    608.651855
4.540970    609.573425
4.550972    610.502441
4.560974    611.436584
4.570976    612.361572
4.580978    613.290161
4.590981    614.222473
4.600983    615.154602
4.610985    616.099854
4.620987    617.072021
4.630989    618.030884
4.640991    619.009521
4.650993    619.975159
4.660995    620.901794
4.670998    621.849854
4.681000    622.783447
4.691002    623.723267
4.701004    624.628906
4.711006    625.547241
4.721008    626.457825
4.731010    627.348938
4.741013    628.240051
4.751015    629.119263
4.761017    629.975586
4.771019    630.832458
4.781021    631.699341
4.791023    632.589905
4.801025    633.469421
4.811028    634.336548
4.821030    635.209900
4.831032    636.104614
4.841034    636.997498
4.851036    637.873718
4.861038    638.751465
4.871040    639.648438
4.881042    640.532166
4.891045    641.435181
4.901047    642.372986
4.911049    643.303345
4.921051    644.213928
4.931053    645.135193
4.941055    646.032654
4.951057    646.945862
4.961060    647.846436
4.971062    648.712830
4.981064    649.583618
4.991066    650.458496
5.001068    651.311401
5.011070    652.213928
5.021072    653.090027
5.031075    654.000977
5.041077    654.917114
5.051079    655.790039
5.061081    656.693542
5.071083    657.593628
5.081085    658.484375
5.091087    659.356079
5.101089    660.234558
5.111092    661.137817
5.121094    662.021851
5.131096    662.913635
5.141098    663.786621
5.151100    664.680603
5.161102    665.578918
5.171104    666.489197
5.181107    667.391174
5.191109    668.278259
5.201111    669.184021
5.211113    670.113892
5.221115    671.002930
5.231117    671.885132
5.241119    672.735352
5.251122    673.578918
5.261124    674.429443
5.271126    675.313171
5.281128    676.214294
5.291130    677.080994
5.301132    677.975769
5.311134    678.818481
5.321136    679.640137
5.331139    680.478882
5.341141    681.315979
5.351143    682.184570
5.361145    682.984009
5.371147    683.811401
5.381149    684.646057
5.391151    685.516174
5.401154    686.372864
5.411156    687.246399
5.421158    688.104431
5.431160    688.955566
5.441162    689.805237
5.451164    690.659973
5.461166    691.535950
5.471169    692.402954
5.481171    693.291809
5.491173    694.184265
5.501175    695.042236
5.511177    695.904846
5.521179    696.782166
5.531181    697.658264
5.541183    698.508362
5.551186    699.373047
5.561188    700.243164
5.571190    701.117004
5.581192    702.009338
5.591194    702.923889
5.601196    703.832153
5.611198    704.723328
5.621201    705.603455
5.631203    706.487366
5.641205    707.383484
5.651207    708.318115
5.661209    709.225342
5.671211    710.124512
5.681213    711.007568
5.691216    711.911316
5.701218    712.838440
5.711220    713.746033
5.721222    714.651001
5.731224    715.576782
5.741226    716.511047
5.751228    717.448242
5.761230    718.383667
5.771233    719.325073
5.781235    720.234558
5.791237    721.170044
5.801239    722.087219
5.811241    722.990784
5.821243    723.911682
5.831245    724.839539
5.841248    725.789307
5.851250    726.741577
5.861252    727.715515
5.871254    728.642151
5.881256    729.532532
5.891258    730.504822
5.901260    731.485962
5.911263    732.438660
5.921265    733.375671
5.931267    734.326904
5.941269    735.271118
5.951271    736.212280
5.961273    737.136536
5.971275    738.088379
5.981277    739.018066
5.991280    739.945923
6.001282    740.861023
6.011284    741.810669
6.021286    742.747192
6.031288    743.699097
6.041290    744.613159
6.051292    745.497437
6.061295    746.422974
6.071297    747.351379
6.081299    748.291138
6.091301    749.241394
6.101303    750.214478
6.111305    751.192017
6.121307    752.153687
6.131310    753.095093
6.141312    754.066528
6.151314    755.027893
6.161316    756.003967
6.171318    756.980835
6.181320    757.981140
6.191322    758.976868
6.201324    759.956970
6.211327    760.934021
6.221329    761.907471
6.231331    762.885193
6.241333    763.874329
6.251335    764.856079
6.261337    765.806213
6.271339    766.775635
6.281342    767.760681
6.291344    768.742859
6.301346    769.731689
6.311348    770.713196
6.321350    771.636841
6.331352    772.571350
6.341354    773.493042
6.351357    774.385925
6.361359    775.298950
6.371361    776.216125
6.381363    777.133789
6.391365    778.068176
6.401367    778.981323
6.411369    779.910217
6.421371    780.850037
6.431374    781.786804
6.441376    782.743713
6.451378    783.662476
6.461380    784.583862
6.471382    785.512573
6.481384    786.438232
6.491386    787.382385
6.501389    788.346069
6.511391    789.326355
6.521393    790.297913
6.531395    791.256165
6.541397    792.197937
6.551399    793.154663
6.561401    794.082092
6.571404    795.008545
6.581406    795.946960
6.591408    796.851807
6.601410    797.817322
6.611412    798.762634
6.621414    799.732910
6.631416    800.685669
6.641418    801.652893
6.651421    802.642944
6.661423    803.615112
6.671425    804.611877
6.681427    805.600708
6.691429    806.579590
6.701431    807.532959
6.711433    808.480530
6.721436    809.425537
6.731438    810.381592
6.741440    811.294006
6.751442    812.236023
6.761444    813.163086
6.771446    814.099243
6.781448    815.034363
6.791451    815.977600
6.801453    816.941345
6.811455    817.911621
6.821457    818.887634
6.831459    819.836609
6.841461    820.770935
6.851463    821.709900
6.861465    822.667725
6.871468    823.616699
6.881470    824.587646
6.891472    825.516418
6.901474    826.433960
6.911476    827.368896
6.921478    828.308960
6.931480    829.225464
6.941483    830.116760
6.951485    831.051514
6.961487    832.027527
6.971489    833.018372
6.981491    833.994873
6.991493    834.927917
7.001495    835.871399
7.011497    836.816772
7.021500    837.795288
7.031502    838.786133
7.041504    839.737305
7.051506    840.702454
7.061508    841.678406
7.071510    842.632935
7.081512    843.582886
7.091515    844.513428
7.101517    845.437134
7.111519    846.365234
7.121521    847.279663
7.131523    848.200439
7.141525    849.161804
7.151527    850.125671
7.161530    851.061829
7.171532    851.946167
7.181534    852.843750
7.191536    853.744202
7.201538    854.614380
7.211540    855.513123
7.221542    856.431274
7.231544    857.342041
7.241547    858.262939
7.251549    859.169128
7.261551    860.118774
7.271553    861.044617
7.281555    861.952576
7.291557    862.804504
7.301559    863.650330
7.311562    864.559814
7.321564    865.490234
7.331566    866.437927
7.341568    867.389404
7.351570    868.360596
7.361572    869.330200
7.371574    870.315369
7.381577    871.325989
7.391579    872.304626
7.401581    873.263672
7.411583    874.213989
7.421585    875.125000
7.431587    876.046448
7.441589    876.961304
7.451591    877.862244
7.461594    878.762085
7.471596    879.703247
7.481598    880.601501
7.491600    881.523682
7.501602    882.465149
7.511604    883.358582
7.521606    884.251221
7.531609    885.180359
7.541611    886.056641
7.551613    886.937317
7.561615    887.796875
7.571617    888.658630
7.581619    889.527710
7.591621    890.384644
7.601624    891.231262
7.611626    892.115906
7.621628    892.970093
7.631630    893.881958
7.641632    894.759277
7.651634    895.693787
7.661636    896.627808
7.671638    897.558289
7.681641    898.495850
7.691643    899.447266
7.701645    900.391846
7.711647    901.313416
7.721649    902.276611
7.731651    903.269409
7.741653    904.269775
7.751656    905.235596
7.761658    906.189087
7.771660    907.165039
7.781662    908.117676
7.791664    909.054016
7.801666    909.995361
7.811668    910.937378
7.821671    911.864197
7.831673    912.794006
7.841675    913.690491
7.851677    914.568909
7.861679    915.481750
7.871681    916.380432
7.881683    917.282959
7.891685    918.166138
7.901688    919.061279
7.911690    919.918701
7.921692    920.814148
7.931694    921.673462
7.941696    922.546570
7.951698    923.428040
7.961700    924.284668
7.971703    925.128662
7.981705    925.998108
7.991707    926.857666
8.001709    927.718933
8.011711    928.536621
8.021713    929.358459
8.031715    930.227173
8.041718    931.065674
8.051720    931.894592
8.061722    932.692078
8.071724    933.512329
8.081726    934.309570
8.091728    935.141541
8.101730    935.972961
8.111732    936.822876
8.121735    937.704285
8.131737    938.574768
8.141739    939.428040
8.151741    940.309143
8.161743    941.206726
8.171745    942.089661
8.181747    942.982483
8.191750    943.853577
8.201752    944.746765
8.211754    945.617798
8.221756    946.517273
8.231758    947.401794
8.241760    948.282043
8.251762    949.154968
8.261765    950.031677
8.271767    950.941345
8.281769    951.840759
8.291771    952.739807
8.301773    953.622253
8.311775    954.487305
8.321777    955.369690
8.331779    956.234558
8.341782    957.116394
8.351784    957.990479
8.361786    958.875854
8.371788    959.808044
8.381790    960.737610
8.391792    961.656311
8.401794    962.578125
8.411797    963.492676
8.421799    964.371277
8.431801    965.307800
8.441803    966.246033
8.451805    967.180176
8.461807    968.086792
8.471809    968.978760
8.481812    969.875549
8.491814    970.751282
8.501816    971.644043
8.511818    972.551331
8.521820    973.454834
8.531822    974.322693
8.541824    975.212952
8.551826    976.096985
8.561829    976.978027
8.571831    977.872681
8.581833    978.815918
8.591835    979.756287
8.601837    980.722412
8.611839    981.678589
8.621841    982.653137
8.631844    983.633118
8.641846    984.574890
8.651848    985.498718
8.661850    986.434814
