#  t (ns) MSD (A^2) D = 1.0983e-06 2.39e-09 cm^2/s nu = 8.3006e-01 1.92e-04
0.000000    -0.000181
0.010000    9.929555
0.020000    16.596237
0.030000    22.500975
0.040000    27.874752
0.050000    32.916374
0.060000    37.660378
0.070000    42.156288
0.080000    46.443222
0.090000    50.516556
0.100000    54.417168
0.110000    58.144642
0.120000    61.746220
0.130000    65.263123
0.140000    68.645569
0.150000    71.931877
0.160000    75.123077
0.170000    78.236412
0.180000    81.247002
0.190000    84.223022
0.200000    87.144775
0.210000    89.972023
0.220000    92.763145
0.230000    95.485130
0.240000    98.152451
0.250000    100.760635
0.260000    103.320663
0.270000    105.826401
0.280000    108.308632
0.290000    110.734550
0.300000    113.115959
0.310000    115.492531
0.320000    117.835785
0.330000    120.117516
0.340000    122.401741
0.350000    124.662186
0.360000    126.926186
0.370000    129.139389
0.380000    131.321518
0.390000    133.497330
0.400000    135.659454
0.410000    137.784348
0.420000    139.897171
0.430000    141.997086
0.440000    144.056442
0.450000    146.109070
0.460000    148.162674
0.470000    150.200470
0.480000    152.183105
0.490000    154.112366
0.500000    156.011322
0.510000    157.878296
0.520000    159.766510
0.530000    161.638870
0.540000    163.490341
0.550000    165.359360
0.560000    167.195694
0.570000    169.025848
0.580000    170.828293
0.590000    172.617889
0.600000    174.417130
0.610000    176.216888
0.620000    178.006134
0.630000    179.793762
0.640000    181.533981
0.650000    183.226501
0.660000    184.899902
0.670000    186.547455
0.680000    188.175598
0.690000    189.813660
0.700000    191.461563
0.710000    193.091507
0.720000    194.720612
0.730000    196.325073
0.740000    197.910599
0.750000    199.458115
0.760000    201.035690
0.770000    202.557236
0.780000    204.100021
0.790000    205.640823
0.800000    207.171585
0.810000    208.681915
0.820000    210.173431
0.830000    211.695694
0.840000    213.216919
0.850000    214.704178
0.860000    216.210190
0.870000    217.686569
0.880000    219.172226
0.890000    220.610428
0.900000    222.055801
0.910000    223.519470
0.920000    224.963028
0.930000    226.396652
0.940000    227.849457
0.950000    229.259995
0.960000    230.659119
0.970000    232.026962
0.980000    233.381668
0.990000    234.754837
1.000000    236.122131
1.010000    237.458832
1.020000    238.814453
1.030000    240.166397
1.040000    241.521347
1.050000    242.878922
1.060000    244.224518
1.070000    245.583603
1.080000    246.963242
1.090000    248.330978
1.100000    249.690063
1.110000    251.073853
1.120000    252.431046
1.130000    253.809006
1.140000    255.161011
1.150000    256.539276
1.160000    257.906525
1.170000    259.254852
1.180000    260.581085
1.190000    261.920319
1.200000    263.265656
1.210000    264.588135
1.220000    265.943604
1.230000    267.273712
1.240000    268.609863
1.250000    269.954376
1.260000    271.301910
1.270000    272.654053
1.280000    273.973969
1.290000    275.303680
1.300000    276.629211
1.310000    277.920715
1.320000    279.211395
1.330000    280.490692
1.340000    281.778534
1.350000    283.055359
1.360000    284.284943
1.370000    285.524048
1.380000    286.764069
1.390000    287.995056
1.400000    289.237030
1.410000    290.491974
1.420000    291.754364
1.430000    292.998444
1.440000    294.231567
1.450000    295.483887
1.460000    296.736725
1.470000    298.006714
1.480000    299.253571
1.490000    300.502472
1.500000    301.744110
1.510000    302.977478
1.520000    304.209656
1.530000    305.430450
1.540000    306.636597
1.550000    307.823639
1.560000    309.001129
1.570000    310.180359
1.580000    311.354401
1.590000    312.492584
1.600000    313.664459
1.610000    314.842712
1.620000    315.991394
1.630000    317.142700
1.640000    318.323059
1.650000    319.511353
1.660000    320.738037
1.670000    321.975830
1.680000    323.173248
1.690000    324.393799
1.700000    325.608429
1.710000    326.819214
1.720000    328.021820
1.730000    329.245728
1.740000    330.451874
1.750000    331.672852
1.760000    332.912018
1.770000    334.148132
1.780000    335.391327
1.790000    336.586365
1.800000    337.787384
1.810000    338.973541
1.820000    340.168793
1.830000    341.366394
1.840000    342.568787
1.850000    343.777496
1.860000    344.997070
1.870000    346.187836
1.880000    347.367035
1.890000    348.541473
1.900000    349.730164
1.910000    350.911438
1.920000    352.078003
1.930000    353.228577
1.940000    354.379364
1.950000    355.563293
1.960000    356.753967
1.970000    357.917053
1.980000    359.070801
1.990000    360.220551
2.000000    361.359161
2.010000    362.499573
2.020000    363.645691
2.030000    364.807190
2.040000    365.963898
2.050000    367.145111
2.060000    368.337799
2.070000    369.490417
2.080000    370.624146
2.090000    371.774811
2.100000    372.922028
2.110000    374.064331
2.120000    375.194122
2.130000    376.302185
2.140000    377.440826
2.150000    378.582520
2.160000    379.693268
2.170000    380.795929
2.180000    381.893433
2.190000    383.009644
2.200000    384.104004
2.210000    385.182617
2.220000    386.276184
2.230000    387.365448
2.240000    388.439423
2.250000    389.540771
2.260000    390.628937
2.270000    391.755371
2.280000    392.869568
2.290000    393.999390
2.300000    395.110474
2.310000    396.255310
2.320000    397.426361
2.330000    398.572479
2.340000    399.700317
2.350000    400.828369
2.360000    401.972198
2.370000    403.102509
2.380000    404.223907
2.390000    405.369537
2.400000    406.530579
2.410000    407.671112
2.420000    408.792450
2.430000    409.903717
2.440000    411.047333
2.450000    412.184845
2.460000    413.282806
2.470000    414.396301
2.480000    415.523315
2.490000    416.666229
2.500000    417.799225
2.510000    418.906128
2.520000    419.983276
2.530000    421.067017
2.540000    422.158539
2.550000    423.245758
2.560000    424.344849
2.570000    425.419983
2.580000    426.494232
2.590000    427.573395
2.600000    428.668884
2.610000    429.797363
2.620000    430.886993
2.630000    431.986694
2.640000    433.100403
2.650000    434.214172
2.660000    435.334198
2.670000    436.427002
2.680000    437.506897
2.690000    438.593018
2.700000    439.677948
2.710000    440.740662
2.720000    441.818573
2.730000    442.915833
2.740000    443.992767
2.750000    445.084717
2.760000    446.182983
2.770000    447.280792
2.780000    448.401459
2.790000    449.510162
2.800000    450.639130
2.810000    451.747040
2.820000    452.849121
2.830000    453.949524
2.840000    455.027954
2.850000    456.095490
2.860000    457.182190
2.870000    458.216309
2.880000    459.288666
2.890000    460.349213
2.900000    461.414124
2.910000    462.472900
2.920000    463.535583
2.930000    464.605438
2.940000    465.675262
2.950000    466.761810
2.960000    467.857513
2.970000    468.946259
2.980000    470.049011
2.990000    471.128204
3.000000    472.243683
3.010000    473.346924
3.020000    474.448242
3.030000    475.550354
3.040000    476.624420
3.050000    477.719818
3.060000    478.782043
3.070000    479.874908
3.080000    480.919098
3.090000    481.932007
3.100000    482.945282
3.110000    483.993530
3.120000    485.048981
3.130000    486.113037
3.140000    487.163330
3.150000    488.205505
3.160000    489.223663
3.170000    490.279205
3.180000    491.318848
3.190000    492.347931
3.200000    493.369965
3.210000    494.388763
3.220000    495.416748
3.230000    496.448730
3.240000    497.483002
3.250000    498.525085
3.260000    499.594086
3.270000    500.665955
3.280000    501.743683
3.290000    502.786591
3.300000    503.834930
3.310000    504.882843
3.320000    505.947784
3.330000    507.037262
3.340000    508.094666
3.350000    509.176208
3.360000    510.234558
3.370000    511.295746
3.380000    512.343506
3.390000    513.390503
3.400000    514.431641
3.410000    515.453003
3.420000    516.449829
3.430000    517.471069
3.440000    518.509766
3.450000    519.545837
3.460000    520.615234
3.470000    521.671936
3.480000    522.702881
3.490000    523.730042
3.500000    524.777283
3.510000    525.788391
3.520000    526.810791
3.530000    527.829224
3.540000    528.883057
3.550000    529.926514
3.560000    530.979797
3.570000    532.048340
3.580000    533.094177
3.590000    534.136414
3.600000    535.192871
3.610000    536.228577
3.620000    537.286560
3.630000    538.352905
3.640000    539.431213
3.650000    540.489929
3.660000    541.545044
3.670000    542.594177
3.680000    543.640076
3.690000    544.693604
3.700000    545.747864
3.710000    546.803467
3.720000    547.861084
3.730000    548.906250
3.740000    549.963318
3.750000    550.979187
3.760000    552.007935
3.770000    553.035095
3.780000    554.039551
3.790000    555.037537
3.800000    556.039612
3.810000    557.043091
3.820000    558.039246
3.830000    559.038574
3.840000    560.039978
3.850000    561.032410
3.860000    562.024475
3.870000    563.010803
3.880000    563.975830
3.890000    564.954773
3.900000    565.924622
3.910000    566.894592
3.920000    567.875000
3.930000    568.834839
3.940000    569.770813
3.950000    570.728516
3.960000    571.680786
3.970000    572.622314
3.980000    573.573425
3.990000    574.505005
4.000000    575.470093
4.010000    576.429321
4.020000    577.390076
4.030000    578.337524
4.040000    579.289856
4.050000    580.245117
4.060000    581.204346
4.070000    582.162842
4.080000    583.089661
4.090000    584.047180
4.100000    584.962891
4.110000    585.875488
4.120000    586.784119
4.130000    587.716736
4.140000    588.652771
4.150000    589.601746
4.160000    590.552185
4.170000    591.486572
4.180000    592.424133
4.190000    593.353210
4.200000    594.300415
4.210000    595.264282
4.220000    596.226013
4.230000    597.180481
4.240000    598.125671
4.250000    599.064331
4.260000    599.992126
4.270000    600.937561
4.280000    601.894043
4.290000    602.857727
4.300000    603.804138
4.310000    604.788757
4.320000    605.779663
4.330000    606.789185
4.340000    607.809265
4.350000    608.861755
4.360000    609.895020
4.370000    610.906738
4.380000    611.872192
4.390000    612.852112
4.400000    613.810852
4.410000    614.774658
4.420000    615.712280
4.430000    616.654114
4.440000    617.612366
4.450000    618.569153
4.460000    619.545471
4.470000    620.491455
4.480000    621.455383
4.490000    622.455872
4.500000    623.430359
4.510000    624.424438
4.520000    625.390930
4.530000    626.361267
4.540000    627.347412
4.550000    628.341492
4.560000    629.345947
4.570000    630.341431
4.580000    631.357910
4.590000    632.375244
4.600000    633.395569
4.610000    634.384644
4.620000    635.413696
4.630000    636.429016
4.640000    637.439819
4.650000    638.419861
4.660000    639.395386
4.670000    640.407410
4.680000    641.373169
4.690000    642.310303
4.700000    643.254822
4.710000    644.188477
4.720000    645.147827
4.730000    646.083130
4.740000    647.011047
4.750000    647.914917
4.760000    648.834717
4.770000    649.748840
4.780000    650.669006
4.790000    651.584290
4.800000    652.492065
4.810000    653.412292
4.820000    654.316956
4.830000    655.230286
4.840000    656.178223
4.850000    657.109985
4.860000    658.027588
4.870000    658.941528
4.880000    659.848816
4.890000    660.742554
4.900000    661.640564
4.910000    662.533813
4.920000    663.416260
4.930000    664.330383
4.940000    665.258301
4.950000    666.176025
4.960000    667.063354
4.970000    667.968689
4.980000    668.834900
4.990000    669.709045
5.000000    670.585205
5.010000    671.474243
5.020000    672.352600
5.030000    673.223572
5.040000    674.085815
5.050000    674.918579
5.060000    675.778931
5.070000    676.627197
5.080000    677.463257
5.090000    678.333557
5.100000    679.201904
5.110000    680.073547
5.120000    680.987854
5.130000    681.861267
5.140000    682.745056
5.150000    683.616577
5.160000    684.482788
5.170000    685.339722
5.180000    686.207825
5.190000    687.089172
5.200000    687.962280
5.210000    688.844849
5.220000    689.720642
5.230000    690.604980
5.240000    691.491089
5.250000    692.376526
5.260000    693.271240
5.270000    694.102661
5.280000    694.947510
5.290000    695.786926
5.300000    696.638611
5.310000    697.507874
5.320000    698.370239
5.330000    699.287964
5.340000    700.176880
5.350000    701.091736
5.360000    701.971313
5.370000    702.848389
5.380000    703.726135
5.390000    704.609863
5.400000    705.477661
5.410000    706.338623
5.420000    707.203003
5.430000    708.083862
5.440000    708.983337
5.450000    709.883423
5.460000    710.794495
5.470000    711.650696
5.480000    712.501526
5.490000    713.372925
5.500000    714.257202
5.510000    715.096680
5.520000    715.941345
5.530000    716.815796
5.540000    717.700012
5.550000    718.586182
5.560000    719.496826
5.570000    720.410950
5.580000    721.301270
5.590000    722.220581
5.600000    723.113403
5.610000    724.016418
5.620000    724.900696
5.630000    725.785828
5.640000    726.661743
5.650000    727.553467
5.660000    728.429932
5.670000    729.300354
5.680000    730.155762
5.690000    730.992188
5.700000    731.861145
5.710000    732.742493
5.720000    733.614319
5.730000    734.462769
5.740000    735.316223
5.750000    736.186890
5.760000    737.055847
5.770000    737.961975
5.780000    738.876587
5.790000    739.767090
5.800000    740.650085
5.810000    741.528625
5.820000    742.408020
5.830000    743.299744
5.840000    744.192322
5.850000    745.049255
5.860000    745.892517
5.870000    746.744202
5.880000    747.590088
5.890000    748.433044
5.900000    749.272461
5.910000    750.123291
5.920000    750.957642
5.930000    751.808228
5.940000    752.654114
5.950000    753.500549
5.960000    754.359436
5.970000    755.209412
5.980000    756.053650
5.990000    756.903931
6.000000    757.745544
6.010000    758.579468
6.020000    759.408325
6.030000    760.205933
6.040000    761.015625
6.050000    761.842590
6.060000    762.682251
6.070000    763.523804
6.080000    764.381836
6.090000    765.216980
6.100000    766.072449
6.110000    766.942078
6.120000    767.806641
6.130000    768.652161
6.140000    769.506958
6.150000    770.379333
6.160000    771.251465
6.170000    772.152588
6.180000    773.049194
6.190000    773.942688
6.200000    774.823730
6.210000    775.691711
6.220000    776.559143
6.230000    777.408997
6.240000    778.237427
6.250000    779.056946
6.260000    779.873779
6.270000    780.701172
6.280000    781.501160
6.290000    782.326355
6.300000    783.129456
6.310000    783.927307
6.320000    784.700867
6.330000    785.518799
6.340000    786.302856
6.350000    787.100098
6.360000    787.924438
6.370000    788.725464
6.380000    789.566162
6.390000    790.425537
6.400000    791.298889
6.410000    792.144836
6.420000    792.980652
6.430000    793.832458
6.440000    794.687500
6.450000    795.551208
6.460000    796.418457
6.470000    797.295837
6.480000    798.152283
6.490000    799.004517
6.500000    799.880554
6.510000    800.730652
6.520000    801.584839
6.530000    802.434021
6.540000    803.277527
6.550000    804.103394
6.560000    804.976807
6.570000    805.833069
6.580000    806.680420
6.590000    807.544128
6.600000    808.400513
6.610000    809.253967
6.620000    810.116577
6.630000    810.996948
6.640000    811.886902
6.650000    812.765137
6.660000    813.599976
6.670000    814.447815
6.680000    815.307129
6.690000    816.159363
6.700000    817.012451
6.710000    817.864319
6.720000    818.741333
6.730000    819.630798
6.740000    820.509827
6.750000    821.408081
6.760000    822.269043
6.770000    823.135925
6.780000    824.015137
6.790000    824.902954
6.800000    825.767578
6.810000    826.650452
6.820000    827.539551
6.830000    828.435730
6.840000    829.339172
6.850000    830.265442
6.860000    831.170471
6.870000    832.067505
6.880000    832.964294
6.890000    833.864807
6.900000    834.761230
6.910000    835.664062
6.920000    836.588745
6.930000    837.492493
6.940000    838.384827
6.950000    839.291687
6.960000    840.206116
6.970000    841.084900
6.980000    841.962463
6.990000    842.850647
7.000000    843.708435
7.010000    844.574768
7.020000    845.415161
7.030000    846.268860
7.040000    847.139160
7.050000    848.021912
7.060000    848.899231
7.070000    849.816772
7.080000    850.706421
7.090000    851.606262
7.100000    852.450012
7.110000    853.337158
7.120000    854.184265
7.130000    855.027222
7.140000    855.875916
7.150000    856.709961
7.160000    857.523193
7.170000    858.344055
7.180000    859.164917
7.190000    859.981262
7.200000    860.798889
7.210000    861.622559
7.220000    862.455383
7.230000    863.299438
7.240000    864.118774
7.250000    864.992859
7.260000    865.860718
7.270000    866.734253
7.280000    867.606384
7.290000    868.458252
7.300000    869.313538
7.310000    870.160339
7.320000    871.002747
7.330000    871.874390
7.340000    872.738647
7.350000    873.595825
7.360000    874.456421
7.370000    875.310364
7.380000    876.169067
7.390000    877.039062
7.400000    877.905090
7.410000    878.729858
7.420000    879.564880
7.430000    880.392090
7.440000    881.191772
7.450000    882.044128
7.460000    882.899597
7.470000    883.728333
7.480000    884.551880
7.490000    885.384338
7.500000    886.244873
7.510000    887.121521
7.520000    887.995544
7.530000    888.887573
7.540000    889.750732
7.550000    890.575256
7.560000    891.421936
7.570000    892.290466
7.580000    893.131714
7.590000    893.966187
7.600000    894.798401
7.610000    895.628418
7.620000    896.454712
7.630000    897.291382
7.640000    898.127136
7.650000    898.951782
7.660000    899.771240
7.670000    900.607605
7.680000    901.423706
7.690000    902.236633
7.700000    903.046448
7.710000    903.880249
7.720000    904.704895
7.730000    905.506775
7.740000    906.300903
7.750000    907.096313
7.760000    907.890076
7.770000    908.667114
7.780000    909.461670
7.790000    910.285522
7.800000    911.112122
7.810000    911.943420
7.820000    912.783691
7.830000    913.633667
7.840000    914.478333
7.850000    915.299133
7.860000    916.106445
7.870000    916.916931
7.880000    917.713074
7.890000    918.519104
7.900000    919.303772
7.910000    920.081604
7.920000    920.842712
7.930000    921.607788
7.940000    922.380249
7.950000    923.141846
7.960000    923.888000
7.970000    924.629333
7.980000    925.366150
7.990000    926.106079
8.000000    926.866150
8.010000    927.614624
8.020000    928.383057
8.030000    929.156860
8.040000    929.954346
8.050000    930.750549
8.060000    931.555237
8.070000    932.341858
8.080000    933.127991
8.090000    933.903748
8.100000    934.672546
8.110000    935.425964
8.120000    936.165100
8.130000    936.909790
8.140000    937.633789
8.150000    938.386353
8.160000    939.165955
8.170000    939.924805
8.180000    940.720947
8.190000    941.495178
8.200000    942.288879
8.210000    943.081116
8.220000    943.871765
8.230000    944.651550
8.240000    945.411194
8.250000    946.144165
8.260000    946.892517
8.270000    947.643372
8.280000    948.426514
8.290000    949.221680
8.300000    950.027954
8.310000    950.869629
8.320000    951.717529
8.330000    952.583191
8.340000    953.421265
8.350000    954.261536
8.360000    955.068665
8.370000    955.908203
8.380000    956.734009
8.390000    957.576111
8.400000    958.393921
8.410000    959.189148
8.420000    960.006592
8.430000    960.842957
8.440000    961.678162
8.450000    962.527405
8.460000    963.351501
8.470000    964.166016
8.480000    965.002686
8.490000    965.827148
8.500000    966.644287
8.510000    967.478394
8.520000    968.278687
8.530000    969.076172
8.540000    969.866821
8.550000    970.658936
8.560000    971.480713
8.570000    972.290588
8.580000    973.093384
8.590000    973.896240
8.600000    974.694336
8.610000    975.489197
8.620000    976.269348
8.630000    977.048889
8.640000    977.834473
8.650000    978.596863
8.660000    979.353394
