#  t (ns) MSD (A^2) D = 1.1311e-06 4.42e-09 cm^2/s nu = 6.5233e-01 8.38e-04
0.000000    -0.000246
0.010000    12.045145
0.020000    20.166204
0.030000    27.294250
0.040000    33.692711
0.050000    39.526764
0.060000    44.989223
0.070000    50.132130
0.080000    54.964420
0.090000    59.574013
0.100000    63.998512
0.110000    68.221954
0.120000    72.285927
0.130000    76.234497
0.140000    80.053131
0.150000    83.717239
0.160000    87.245644
0.170000    90.756248
0.180000    94.217064
0.190000    97.630035
0.200000    100.871162
0.210000    104.035240
0.220000    107.173950
0.230000    110.274338
0.240000    113.252945
0.250000    116.169708
0.260000    119.105026
0.270000    122.057655
0.280000    124.918709
0.290000    127.740776
0.300000    130.530243
0.310000    133.277786
0.320000    135.952866
0.330000    138.635300
0.340000    141.259460
0.350000    143.837067
0.360000    146.348160
0.370000    148.865814
0.380000    151.367523
0.390000    153.840927
0.400000    156.306763
0.410000    158.708481
0.420000    161.083221
0.430000    163.433426
0.440000    165.745667
0.450000    168.084534
0.460000    170.382141
0.470000    172.644974
0.480000    174.919006
0.490000    177.161118
0.500000    179.333069
0.510000    181.486923
0.520000    183.581039
0.530000    185.633652
0.540000    187.635071
0.550000    189.661255
0.560000    191.704803
0.570000    193.738480
0.580000    195.747269
0.590000    197.707474
0.600000    199.749130
0.610000    201.782394
0.620000    203.801437
0.630000    205.771454
0.640000    207.774063
0.650000    209.706238
0.660000    211.621094
0.670000    213.525482
0.680000    215.433868
0.690000    217.312515
0.700000    219.193436
0.710000    221.139542
0.720000    223.035889
0.730000    224.877426
0.740000    226.735672
0.750000    228.543655
0.760000    230.339767
0.770000    232.129990
0.780000    233.897232
0.790000    235.664200
0.800000    237.429840
0.810000    239.222595
0.820000    241.038681
0.830000    242.827454
0.840000    244.650497
0.850000    246.418076
0.860000    248.130341
0.870000    249.867584
0.880000    251.583221
0.890000    253.294708
0.900000    255.013412
0.910000    256.696869
0.920000    258.358093
0.930000    259.993164
0.940000    261.595673
0.950000    263.179260
0.960000    264.758575
0.970000    266.346100
0.980000    267.919373
0.990000    269.450623
1.000000    271.005890
1.010000    272.558563
1.020000    274.135590
1.030000    275.671204
1.040000    277.208862
1.050000    278.701630
1.060000    280.229675
1.070000    281.725891
1.080000    283.289368
1.090000    284.834229
1.100000    286.381744
1.110000    287.945129
1.120000    289.571289
1.130000    291.117249
1.140000    292.650482
1.150000    294.140411
1.160000    295.663849
1.170000    297.165985
1.180000    298.649689
1.190000    300.129333
1.200000    301.656158
1.210000    303.191101
1.220000    304.712677
1.230000    306.227112
1.240000    307.743835
1.250000    309.255463
1.260000    310.703339
1.270000    312.255920
1.280000    313.741272
1.290000    315.267792
1.300000    316.777710
1.310000    318.287628
1.320000    319.796875
1.330000    321.275238
1.340000    322.758850
1.350000    324.273071
1.360000    325.791748
1.370000    327.286743
1.380000    328.837952
1.390000    330.370697
1.400000    331.946075
1.410000    333.450928
1.420000    334.921783
1.430000    336.442413
1.440000    337.920441
1.450000    339.366486
1.460000    340.850006
1.470000    342.360077
1.480000    343.806763
1.490000    345.225281
1.500000    346.643158
1.510000    348.014954
1.520000    349.360870
1.530000    350.810486
1.540000    352.222809
1.550000    353.652679
1.560000    354.975311
1.570000    356.297577
1.580000    357.599243
1.590000    358.919647
1.600000    360.277832
1.610000    361.611206
1.620000    362.951477
1.630000    364.308502
1.640000    365.637939
1.650000    367.043213
1.660000    368.403290
1.670000    369.814209
1.680000    371.175873
1.690000    372.548035
1.700000    373.890869
1.710000    375.291748
1.720000    376.698517
1.730000    378.040466
1.740000    379.417084
1.750000    380.761963
1.760000    382.081696
1.770000    383.425842
1.780000    384.827393
1.790000    386.310211
1.800000    387.723969
1.810000    389.165863
1.820000    390.609314
1.830000    392.040100
1.840000    393.491241
1.850000    394.859894
1.860000    396.181030
1.870000    397.549408
1.880000    398.978882
1.890000    400.432556
1.900000    401.878448
1.910000    403.316681
1.920000    404.778503
1.930000    406.199249
1.940000    407.590820
1.950000    408.995148
1.960000    410.364197
1.970000    411.682648
1.980000    413.027679
1.990000    414.349396
2.000000    415.596649
2.010000    416.831604
2.020000    418.098450
2.030000    419.328156
2.040000    420.532043
2.050000    421.712555
2.060000    422.916595
2.070000    424.103851
2.080000    425.335449
2.090000    426.569611
2.100000    427.771667
2.110000    429.014709
2.120000    430.263550
2.130000    431.497131
2.140000    432.741364
2.150000    433.978455
2.160000    435.208313
2.170000    436.430237
2.180000    437.654510
2.190000    438.925476
2.200000    440.209381
2.210000    441.471802
2.220000    442.725067
2.230000    443.920288
2.240000    445.148468
2.250000    446.332764
2.260000    447.526337
2.270000    448.700623
2.280000    449.886719
2.290000    451.144562
2.300000    452.336945
2.310000    453.510040
2.320000    454.720795
2.330000    455.932220
2.340000    457.142517
2.350000    458.390106
2.360000    459.635803
2.370000    460.892883
2.380000    462.129425
2.390000    463.376709
2.400000    464.663147
2.410000    465.916351
2.420000    467.095123
2.430000    468.235107
2.440000    469.382690
2.450000    470.540466
2.460000    471.731720
2.470000    472.919617
2.480000    474.154480
2.490000    475.407837
2.500000    476.639954
2.510000    477.869324
2.520000    479.090881
2.530000    480.243713
2.540000    481.490967
2.550000    482.755096
2.560000    484.018616
2.570000    485.302185
2.580000    486.569519
2.590000    487.831879
2.600000    489.142273
2.610000    490.460236
2.620000    491.795532
2.630000    493.098358
2.640000    494.410278
2.650000    495.741638
2.660000    497.102753
2.670000    498.491608
2.680000    499.841034
2.690000    501.110718
2.700000    502.393524
2.710000    503.721680
2.720000    505.017365
2.730000    506.268677
2.740000    507.530457
2.750000    508.731171
2.760000    509.954834
2.770000    511.160553
2.780000    512.373169
2.790000    513.595215
2.800000    514.830139
2.810000    516.039429
2.820000    517.276062
2.830000    518.579346
2.840000    519.868164
2.850000    521.144836
2.860000    522.436157
2.870000    523.731445
2.880000    525.049072
2.890000    526.314209
2.900000    527.570068
2.910000    528.839355
2.920000    530.146301
2.930000    531.436829
2.940000    532.709961
2.950000    533.999695
2.960000    535.303833
2.970000    536.610718
2.980000    537.897644
2.990000    539.134155
3.000000    540.337708
3.010000    541.584717
3.020000    542.862732
3.030000    544.147034
3.040000    545.365601
3.050000    546.608521
3.060000    547.846313
3.070000    549.151489
3.080000    550.420837
3.090000    551.635742
3.100000    552.830933
3.110000    554.034851
3.120000    555.232971
3.130000    556.418335
3.140000    557.552979
3.150000    558.652222
3.160000    559.750854
3.170000    560.875183
3.180000    562.024536
3.190000    563.154053
3.200000    564.267517
3.210000    565.373657
3.220000    566.504578
3.230000    567.621643
3.240000    568.723938
3.250000    569.848572
3.260000    571.051819
3.270000    572.307678
3.280000    573.529358
3.290000    574.772400
3.300000    576.001526
3.310000    577.204834
3.320000    578.410950
3.330000    579.635437
3.340000    580.823975
3.350000    582.039978
3.360000    583.218994
3.370000    584.399780
3.380000    585.598816
3.390000    586.795227
3.400000    587.941223
3.410000    589.118347
3.420000    590.292725
3.430000    591.465820
3.440000    592.691833
3.450000    593.926636
3.460000    595.159790
3.470000    596.406189
3.480000    597.665710
3.490000    598.920654
3.500000    600.144104
3.510000    601.336304
3.520000    602.520020
3.530000    603.687866
3.540000    604.875549
3.550000    606.091675
3.560000    607.332764
3.570000    608.544373
3.580000    609.759949
3.590000    611.013489
3.600000    612.221924
3.610000    613.477234
3.620000    614.721313
3.630000    615.977051
3.640000    617.238037
3.650000    618.499451
3.660000    619.782593
3.670000    621.065247
3.680000    622.356140
3.690000    623.672668
3.700000    624.970459
3.710000    626.253174
3.720000    627.487305
3.730000    628.753845
3.740000    630.010376
3.750000    631.274902
3.760000    632.526428
3.770000    633.823059
3.780000    635.069275
3.790000    636.320129
3.800000    637.558472
3.810000    638.828369
3.820000    640.092285
3.830000    641.343018
3.840000    642.567383
3.850000    643.799500
3.860000    645.057312
3.870000    646.324280
3.880000    647.566101
3.890000    648.782227
3.900000    650.041992
3.910000    651.304993
3.920000    652.577454
3.930000    653.887512
3.940000    655.174683
3.950000    656.409302
3.960000    657.667664
3.970000    658.892700
3.980000    660.162354
3.990000    661.430237
4.000000    662.687317
4.010000    663.946167
4.020000    665.197266
4.030000    666.478271
4.040000    667.723206
4.050000    668.960876
4.060000    670.170349
4.070000    671.385071
4.080000    672.589294
4.090000    673.845337
4.100000    675.072876
4.110000    676.338196
4.120000    677.542297
4.130000    678.725891
4.140000    679.885803
4.150000    681.004761
4.160000    682.135193
4.170000    683.258301
4.180000    684.390747
4.190000    685.493835
4.200000    686.582642
4.210000    687.659668
4.220000    688.750305
4.230000    689.833191
4.240000    690.897217
4.250000    691.986389
4.260000    693.128479
4.270000    694.297852
4.280000    695.423828
4.290000    696.568909
4.300000    697.697815
4.310000    698.877991
4.320000    700.064148
4.330000    701.211426
4.340000    702.394226
4.350000    703.565613
4.360000    704.734436
4.370000    705.928650
4.380000    707.123413
4.390000    708.299011
4.400000    709.464905
4.410000    710.662842
4.420000    711.868652
4.430000    713.081787
4.440000    714.304993
4.450000    715.489014
4.460000    716.681946
4.470000    717.912964
4.480000    719.086853
4.490000    720.274170
4.500000    721.368774
4.510000    722.471985
4.520000    723.553223
4.530000    724.648315
4.540000    725.796082
4.550000    726.875183
4.560000    727.972351
4.570000    729.055176
4.580000    730.127075
4.590000    731.208862
4.600000    732.313904
4.610000    733.418823
4.620000    734.489075
4.630000    735.600952
4.640000    736.727173
4.650000    737.851562
4.660000    738.978455
4.670000    740.130249
4.680000    741.283508
4.690000    742.472046
4.700000    743.617981
4.710000    744.800232
4.720000    745.978210
4.730000    747.210388
4.740000    748.426514
4.750000    749.614441
4.760000    750.736816
4.770000    751.885864
4.780000    753.001404
4.790000    754.151794
4.800000    755.317688
4.810000    756.482483
4.820000    757.615234
4.830000    758.704224
4.840000    759.811035
4.850000    760.877319
4.860000    761.962463
4.870000    762.979492
4.880000    764.001160
4.890000    765.030518
4.900000    766.053772
4.910000    767.096985
4.920000    768.099426
4.930000    769.107361
4.940000    770.214172
4.950000    771.289490
4.960000    772.393677
4.970000    773.477722
4.980000    774.523560
4.990000    775.550110
5.000000    776.573914
5.010000    777.644958
5.020000    778.737000
5.030000    779.847290
5.040000    780.986816
5.050000    782.071960
5.060000    783.211121
5.070000    784.350647
5.080000    785.492188
5.090000    786.628479
5.100000    787.724915
5.110000    788.815125
5.120000    789.944885
5.130000    791.069458
5.140000    792.156433
5.150000    793.285583
5.160000    794.429077
5.170000    795.522644
5.180000    796.682861
5.190000    797.845337
5.200000    799.008423
5.210000    800.152283
5.220000    801.322998
5.230000    802.518982
5.240000    803.682556
5.250000    804.833984
5.260000    805.933228
5.270000    806.971680
5.280000    808.036621
5.290000    809.157837
5.300000    810.211975
5.310000    811.293518
5.320000    812.490356
5.330000    813.642761
5.340000    814.719849
5.350000    815.757141
5.360000    816.792542
5.370000    817.841309
5.380000    818.880554
5.390000    819.948242
5.400000    820.980713
5.410000    822.046936
5.420000    823.076294
5.430000    824.123108
5.440000    825.136658
5.450000    826.200378
5.460000    827.248413
5.470000    828.255249
5.480000    829.288086
5.490000    830.333618
5.500000    831.442017
5.510000    832.577332
5.520000    833.745178
5.530000    834.840698
5.540000    835.956970
5.550000    837.055603
5.560000    838.163452
5.570000    839.306091
5.580000    840.449402
5.590000    841.650635
5.600000    842.821350
5.610000    843.975220
5.620000    845.107422
5.630000    846.287292
5.640000    847.403259
5.650000    848.563416
5.660000    849.691650
5.670000    850.830383
5.680000    851.982361
5.690000    853.142151
5.700000    854.339783
5.710000    855.561401
5.720000    856.786316
5.730000    858.017517
5.740000    859.262512
5.750000    860.447571
5.760000    861.609558
5.770000    862.770386
5.780000    863.983582
5.790000    865.177612
5.800000    866.375244
5.810000    867.576111
5.820000    868.763000
5.830000    869.928467
5.840000    871.098572
5.850000    872.256348
5.860000    873.437683
5.870000    874.619446
5.880000    875.820679
5.890000    876.999878
5.900000    878.112427
5.910000    879.284058
5.920000    880.415039
5.930000    881.538269
5.940000    882.611694
5.950000    883.715942
5.960000    884.834961
5.970000    885.932129
5.980000    887.073059
5.990000    888.228394
6.000000    889.383911
6.010000    890.585083
6.020000    891.773071
6.030000    892.975403
6.040000    894.182251
6.050000    895.416626
6.060000    896.631104
6.070000    897.804565
6.080000    898.975098
6.090000    900.160889
6.100000    901.305664
6.110000    902.431396
6.120000    903.575317
6.130000    904.758728
6.140000    905.990112
6.150000    907.190430
6.160000    908.402527
6.170000    909.581482
6.180000    910.784058
6.190000    911.968262
6.200000    913.144043
6.210000    914.296875
6.220000    915.414612
6.230000    916.586304
6.240000    917.799072
6.250000    919.005798
6.260000    920.212280
6.270000    921.424866
6.280000    922.606750
6.290000    923.771667
6.300000    924.917297
6.310000    926.096436
6.320000    927.230652
6.330000    928.340881
6.340000    929.470703
6.350000    930.597595
6.360000    931.709900
6.370000    932.797180
6.380000    933.940247
6.390000    935.067627
6.400000    936.244141
6.410000    937.415649
6.420000    938.528442
6.430000    939.736389
6.440000    940.867798
6.450000    941.998901
6.460000    943.147400
6.470000    944.281616
6.480000    945.434692
6.490000    946.575134
6.500000    947.740662
6.510000    948.863342
6.520000    950.009216
6.530000    951.134338
6.540000    952.259399
6.550000    953.396118
6.560000    954.502625
6.570000    955.662048
6.580000    956.826599
6.590000    957.965637
6.600000    959.169983
6.610000    960.347046
6.620000    961.502258
6.630000    962.659607
6.640000    963.773926
6.650000    964.828125
6.660000    965.928467
6.670000    967.045654
6.680000    968.150696
6.690000    969.292603
6.700000    970.446228
6.710000    971.533875
6.720000    972.589966
6.730000    973.726929
6.740000    974.821045
6.750000    975.914795
6.760000    977.003418
6.770000    978.186157
6.780000    979.353577
6.790000    980.535828
6.800000    981.678040
6.810000    982.793701
6.820000    983.970703
6.830000    985.168091
6.840000    986.392273
6.850000    987.606628
6.860000    988.757385
6.870000    989.915588
6.880000    991.052246
6.890000    992.214661
6.900000    993.358337
6.910000    994.443359
6.920000    995.498169
6.930000    996.533142
6.940000    997.628113
6.950000    998.705627
6.960000    999.816650
6.970000    1000.924805
6.980000    1002.032715
6.990000    1003.137085
7.000000    1004.164673
7.010000    1005.219360
7.020000    1006.315369
7.030000    1007.372986
7.040000    1008.452881
7.050000    1009.489685
7.060000    1010.522400
7.070000    1011.647522
7.080000    1012.741333
7.090000    1013.813965
7.100000    1014.894043
7.110000    1016.001770
7.120000    1017.068665
7.130000    1018.137268
7.140000    1019.239014
7.150000    1020.327454
7.160000    1021.459351
7.170000    1022.588440
7.180000    1023.700928
7.190000    1024.813354
7.200000    1025.885864
7.210000    1027.021118
7.220000    1028.132568
7.230000    1029.309814
7.240000    1030.420532
7.250000    1031.559814
7.260000    1032.670410
7.270000    1033.771606
7.280000    1034.860474
7.290000    1035.981323
7.300000    1037.085083
7.310000    1038.220337
7.320000    1039.324707
7.330000    1040.445435
7.340000    1041.532104
7.350000    1042.645020
7.360000    1043.765259
7.370000    1044.850464
7.380000    1045.959106
7.390000    1047.104736
7.400000    1048.191650
7.410000    1049.237183
7.420000    1050.351318
7.430000    1051.443970
7.440000    1052.569214
7.450000    1053.720093
7.460000    1054.801636
7.470000    1055.885132
7.480000    1056.981567
7.490000    1058.062744
7.500000    1059.170044
7.510000    1060.288330
7.520000    1061.426636
7.530000    1062.492310
7.540000    1063.641724
7.550000    1064.770996
7.560000    1065.927124
7.570000    1067.062378
7.580000    1068.240967
7.590000    1069.439697
7.600000    1070.592773
7.610000    1071.722900
7.620000    1072.839111
7.630000    1073.883789
7.640000    1074.984863
7.650000    1076.050415
7.660000    1077.047485
7.670000    1078.090576
7.680000    1079.089722
7.690000    1080.105103
7.700000    1081.185669
7.710000    1082.250977
7.720000    1083.317261
7.730000    1084.353271
7.740000    1085.391113
7.750000    1086.430176
7.760000    1087.493286
7.770000    1088.518066
7.780000    1089.520142
7.790000    1090.553833
7.800000    1091.582764
7.810000    1092.611328
7.820000    1093.577026
7.830000    1094.575439
7.840000    1095.572388
7.850000    1096.564819
7.860000    1097.574707
7.870000    1098.604126
7.880000    1099.652832
7.890000    1100.634033
7.900000    1101.682007
7.910000    1102.747803
7.920000    1103.696655
7.930000    1104.652588
7.940000    1105.612915
7.950000    1106.583862
7.960000    1107.523193
7.970000    1108.475830
7.980000    1109.381348
7.990000    1110.318481
8.000000    1111.263672
8.010000    1112.239502
8.020000    1113.214233
8.030000    1114.230469
8.040000    1115.228516
8.050000    1116.328003
8.060000    1117.417847
8.070000    1118.490112
8.080000    1119.477539
8.090000    1120.478271
8.100000    1121.553467
8.110000    1122.620850
8.120000    1123.609253
8.130000    1124.537231
8.140000    1125.506592
8.150000    1126.481445
8.160000    1127.455811
8.170000    1128.438965
8.180000    1129.415039
8.190000    1130.379761
8.200000    1131.349609
8.210000    1132.316650
8.220000    1133.267212
8.230000    1134.274048
8.240000    1135.290039
8.250000    1136.275391
8.260000    1137.317749
8.270000    1138.347046
8.280000    1139.341064
8.290000    1140.361450
8.300000    1141.390991
8.310000    1142.401489
8.320000    1143.395264
8.330000    1144.399780
8.340000    1145.390503
8.350000    1146.423706
8.360000    1147.432983
8.370000    1148.435181
8.380000    1149.373291
8.390000    1150.295776
8.400000    1151.236572
8.410000    1152.177368
8.420000    1153.081299
8.430000    1154.021729
8.440000    1154.933472
8.450000    1155.838867
8.460000    1156.793579
8.470000    1157.768677
8.480000    1158.747925
8.490000    1159.798828
8.500000    1160.839233
8.510000    1161.861694
8.520000    1162.848511
8.530000    1163.863037
8.540000    1164.920410
8.550000    1165.933472
8.560000    1166.924805
8.570000    1167.931030
8.580000    1168.896362
8.590000    1169.857666
