#  t (ns) MSD (A^2) D = 2.7122e-06 7.26e-09 cm^2/s nu = 8.4463e-01 4.21e-04
0.000000    -0.000010
0.010000    16.961140
0.020000    28.073318
0.030000    37.354397
0.040000    45.588291
0.050000    53.088329
0.060000    60.013462
0.070000    66.494728
0.080000    72.622330
0.090000    78.457771
0.100000    84.045959
0.110000    89.304588
0.120000    94.412842
0.130000    99.417671
0.140000    104.211365
0.150000    108.905731
0.160000    113.397881
0.170000    117.823067
0.180000    122.128021
0.190000    126.348221
0.200000    130.467606
0.210000    134.546051
0.220000    138.544800
0.230000    142.446045
0.240000    146.237869
0.250000    149.986572
0.260000    153.637222
0.270000    157.326691
0.280000    160.981842
0.290000    164.615646
0.300000    168.127853
0.310000    171.630234
0.320000    175.053558
0.330000    178.471512
0.340000    181.876389
0.350000    185.224701
0.360000    188.584122
0.370000    191.822311
0.380000    195.099091
0.390000    198.351639
0.400000    201.513321
0.410000    204.621674
0.420000    207.818253
0.430000    210.921127
0.440000    214.032791
0.450000    217.186539
0.460000    220.296387
0.470000    223.362534
0.480000    226.442078
0.490000    229.485092
0.500000    232.484848
0.510000    235.476578
0.520000    238.466019
0.530000    241.425598
0.540000    244.413895
0.550000    247.367493
0.560000    250.244308
0.570000    253.153107
0.580000    256.057770
0.590000    259.039337
0.600000    262.014496
0.610000    264.968201
0.620000    267.849365
0.630000    270.744751
0.640000    273.579865
0.650000    276.338196
0.660000    279.126495
0.670000    281.820679
0.680000    284.517395
0.690000    287.198975
0.700000    289.896210
0.710000    292.649841
0.720000    295.377869
0.730000    298.006561
0.740000    300.527466
0.750000    303.118713
0.760000    305.731354
0.770000    308.383728
0.780000    311.028229
0.790000    313.656097
0.800000    316.322296
0.810000    318.943604
0.820000    321.511322
0.830000    324.035950
0.840000    326.572845
0.850000    329.089661
0.860000    331.522491
0.870000    333.988129
0.880000    336.403900
0.890000    338.784393
0.900000    341.128326
0.910000    343.438049
0.920000    345.745697
0.930000    348.136810
0.940000    350.601196
0.950000    353.091736
0.960000    355.527771
0.970000    357.965088
0.980000    360.405884
0.990000    362.881256
1.000000    365.261475
1.010000    367.627502
1.020000    370.003723
1.030000    372.432159
1.040000    374.926270
1.050000    377.389557
1.060000    379.845062
1.070000    382.277130
1.080000    384.696899
1.090000    387.093140
1.100000    389.592377
1.110000    391.976776
1.120000    394.339264
1.130000    396.699738
1.140000    399.075592
1.150000    401.403076
1.160000    403.723907
1.170000    406.085449
1.180000    408.406464
1.190000    410.784576
1.200000    413.110321
1.210000    415.426178
1.220000    417.730011
1.230000    420.044342
1.240000    422.373749
1.250000    424.703003
1.260000    426.982086
1.270000    429.235077
1.280000    431.540833
1.290000    433.905396
1.300000    436.272430
1.310000    438.591553
1.320000    440.904541
1.330000    443.178772
1.340000    445.497223
1.350000    447.846893
1.360000    450.208527
1.370000    452.521118
1.380000    454.850525
1.390000    457.194763
1.400000    459.465607
1.410000    461.778168
1.420000    464.079315
1.430000    466.437439
1.440000    468.733704
1.450000    470.998413
1.460000    473.228668
1.470000    475.484802
1.480000    477.758698
1.490000    480.052338
1.500000    482.295807
1.510000    484.541931
1.520000    486.778473
1.530000    489.074341
1.540000    491.389252
1.550000    493.664429
1.560000    495.901794
1.570000    498.158508
1.580000    500.381531
1.590000    502.628754
1.600000    504.902283
1.610000    507.199127
1.620000    509.513824
1.630000    511.866791
1.640000    514.184143
1.650000    516.528503
1.660000    518.821045
1.670000    521.137573
1.680000    523.440063
1.690000    525.760315
1.700000    528.065552
1.710000    530.350647
1.720000    532.581543
1.730000    534.787415
1.740000    536.995667
1.750000    539.246277
1.760000    541.489563
1.770000    543.642761
1.780000    545.868591
1.790000    548.039673
1.800000    550.308105
1.810000    552.500488
1.820000    554.724060
1.830000    556.880188
1.840000    559.050659
1.850000    561.211975
1.860000    563.408630
1.870000    565.515747
1.880000    567.666504
1.890000    569.707764
1.900000    571.737488
1.910000    573.790283
1.920000    575.900024
1.930000    577.993652
1.940000    580.121155
1.950000    582.266846
1.960000    584.347351
1.970000    586.473083
1.980000    588.681702
1.990000    590.816589
2.000000    592.901245
2.010000    595.058350
2.020000    597.198853
2.030000    599.272461
2.040000    601.336914
2.050000    603.463135
2.060000    605.604675
2.070000    607.740173
2.080000    609.880371
2.090000    612.039062
2.100000    614.140747
2.110000    616.216309
2.120000    618.306519
2.130000    620.380371
2.140000    622.486267
2.150000    624.564209
2.160000    626.707947
2.170000    628.721802
2.180000    630.702515
2.190000    632.701477
2.200000    634.757080
2.210000    636.798279
2.220000    638.872864
2.230000    640.869934
2.240000    642.819214
2.250000    644.766479
2.260000    646.641541
2.270000    648.538696
2.280000    650.489197
2.290000    652.376221
2.300000    654.244629
2.310000    656.081116
2.320000    657.913269
2.330000    659.731934
2.340000    661.611816
2.350000    663.451111
2.360000    665.349426
2.370000    667.175110
2.380000    669.024353
2.390000    670.844910
2.400000    672.651855
2.410000    674.498962
2.420000    676.473083
2.430000    678.417236
2.440000    680.318115
2.450000    682.225098
2.460000    684.055786
2.470000    685.881104
2.480000    687.756104
2.490000    689.624146
2.500000    691.511841
2.510000    693.386841
2.520000    695.230286
2.530000    697.114380
2.540000    699.010376
2.550000    700.930847
2.560000    702.864929
2.570000    704.760925
2.580000    706.653503
2.590000    708.520203
2.600000    710.380554
2.610000    712.255066
2.620000    714.179504
2.630000    716.078979
2.640000    717.966248
2.650000    719.860840
2.660000    721.709106
2.670000    723.551941
2.680000    725.379700
2.690000    727.260498
2.700000    729.111694
2.710000    731.023010
2.720000    732.944397
2.730000    734.820862
2.740000    736.751770
2.750000    738.678040
2.760000    740.613525
2.770000    742.451355
2.780000    744.375793
2.790000    746.368103
2.800000    748.334106
2.810000    750.297119
2.820000    752.280823
2.830000    754.239990
2.840000    756.192749
2.850000    758.194153
2.860000    760.227722
2.870000    762.257996
2.880000    764.332458
2.890000    766.293213
2.900000    768.280762
2.910000    770.224976
2.920000    772.177612
2.930000    774.194885
2.940000    776.234863
2.950000    778.281799
2.960000    780.341675
2.970000    782.387390
2.980000    784.408508
2.990000    786.389893
3.000000    788.354065
3.010000    790.334290
3.020000    792.335205
3.030000    794.358704
3.040000    796.288696
3.050000    798.241882
3.060000    800.158203
3.070000    802.083923
3.080000    803.960571
3.090000    805.829834
3.100000    807.706726
3.110000    809.570862
3.120000    811.432434
3.130000    813.222778
3.140000    815.011536
3.150000    816.810242
3.160000    818.669861
3.170000    820.531311
3.180000    822.437744
3.190000    824.282593
3.200000    826.152222
3.210000    827.991760
3.220000    829.836914
3.230000    831.707947
3.240000    833.537903
3.250000    835.481750
3.260000    837.359375
3.270000    839.241455
3.280000    841.229553
3.290000    843.121277
3.300000    845.043213
3.310000    846.929443
3.320000    848.863342
3.330000    850.777100
3.340000    852.664917
3.350000    854.562561
3.360000    856.421936
3.370000    858.386292
3.380000    860.335510
3.390000    862.290100
3.400000    864.119446
3.410000    866.002319
3.420000    867.851257
3.430000    869.748413
3.440000    871.611938
3.450000    873.536377
3.460000    875.356506
3.470000    877.247742
3.480000    879.059998
3.490000    880.902100
3.500000    882.795776
3.510000    884.649353
3.520000    886.486694
3.530000    888.347839
3.540000    890.238647
3.550000    892.030640
3.560000    893.902710
3.570000    895.870667
3.580000    897.818115
3.590000    899.730957
3.600000    901.541138
3.610000    903.436951
3.620000    905.331238
3.630000    907.282410
3.640000    909.252136
3.650000    911.228577
3.660000    913.222961
3.670000    915.226990
3.680000    917.159180
3.690000    919.117188
3.700000    921.134827
3.710000    923.093750
3.720000    925.035706
3.730000    927.062561
3.740000    929.071838
3.750000    931.026733
3.760000    932.900391
3.770000    934.745728
3.780000    936.629761
3.790000    938.528015
3.800000    940.398376
3.810000    942.377075
3.820000    944.337463
3.830000    946.268127
3.840000    948.107910
3.850000    949.962036
3.860000    951.837280
3.870000    953.640747
3.880000    955.430298
3.890000    957.219238
3.900000    959.110718
3.910000    961.051880
3.920000    963.006653
3.930000    964.873779
3.940000    966.709290
3.950000    968.588013
3.960000    970.440002
3.970000    972.356445
3.980000    974.168091
3.990000    975.962097
4.000000    977.824097
4.010000    979.588806
4.020000    981.443054
4.030000    983.286499
4.040000    985.174072
4.050000    987.052734
4.060000    988.967590
4.070000    990.872559
4.080000    992.741333
4.090000    994.594421
4.100000    996.495667
4.110000    998.426331
4.120000    1000.381470
4.130000    1002.280701
4.140000    1004.162415
4.150000    1006.116821
4.160000    1008.111694
4.170000    1010.007385
4.180000    1011.903442
4.190000    1013.809448
4.200000    1015.692810
4.210000    1017.601624
4.220000    1019.593140
4.230000    1021.510559
4.240000    1023.382202
4.250000    1025.270996
4.260000    1027.178467
4.270000    1028.996826
4.280000    1030.868408
4.290000    1032.824463
4.300000    1034.784058
4.310000    1036.819702
4.320000    1038.803223
4.330000    1040.786987
4.340000    1042.846436
4.350000    1044.924927
4.360000    1046.953491
4.370000    1048.917358
4.380000    1050.959229
4.390000    1052.961304
4.400000    1054.969360
4.410000    1056.930298
4.420000    1058.894775
4.430000    1060.851685
4.440000    1062.802368
4.450000    1064.805298
4.460000    1066.855469
4.470000    1068.937744
4.480000    1070.987549
4.490000    1072.980835
4.500000    1074.935425
4.510000    1076.882324
4.520000    1078.826294
4.530000    1080.725342
4.540000    1082.643677
4.550000    1084.674072
4.560000    1086.671021
4.570000    1088.625000
4.580000    1090.661865
4.590000    1092.646606
4.600000    1094.597290
4.610000    1096.585693
4.620000    1098.501831
4.630000    1100.390747
4.640000    1102.257446
4.650000    1104.218506
4.660000    1106.093018
4.670000    1108.035278
4.680000    1109.962158
4.690000    1111.885376
4.700000    1113.757080
4.710000    1115.605347
4.720000    1117.403198
4.730000    1119.223755
4.740000    1121.137207
4.750000    1122.987427
4.760000    1124.824707
4.770000    1126.661621
4.780000    1128.400879
4.790000    1130.098633
4.800000    1131.875000
4.810000    1133.606445
4.820000    1135.385864
4.830000    1137.209106
4.840000    1139.046997
4.850000    1140.855103
4.860000    1142.763550
4.870000    1144.616943
4.880000    1146.407227
4.890000    1148.286743
4.900000    1150.120483
4.910000    1151.964844
4.920000    1153.730469
4.930000    1155.461060
4.940000    1157.241211
4.950000    1158.982910
4.960000    1160.734497
4.970000    1162.517822
4.980000    1164.268677
4.990000    1165.951294
5.000000    1167.678589
5.010000    1169.441406
5.020000    1171.186157
5.030000    1172.955078
5.040000    1174.737305
5.050000    1176.552856
5.060000    1178.338013
5.070000    1180.132324
5.080000    1181.991455
5.090000    1183.863403
5.100000    1185.703979
5.110000    1187.580078
5.120000    1189.427368
5.130000    1191.321899
5.140000    1193.182129
5.150000    1194.952759
5.160000    1196.688110
5.170000    1198.430542
5.180000    1200.188232
5.190000    1201.951660
5.200000    1203.795166
5.210000    1205.594360
5.220000    1207.378906
5.230000    1209.162354
5.240000    1210.974243
5.250000    1212.681519
5.260000    1214.430298
5.270000    1216.268921
5.280000    1218.095703
5.290000    1219.898560
5.300000    1221.705200
5.310000    1223.579712
5.320000    1225.388672
5.330000    1227.123047
5.340000    1228.973755
5.350000    1230.826172
5.360000    1232.676514
5.370000    1234.502197
5.380000    1236.426025
5.390000    1238.315918
5.400000    1240.143555
5.410000    1242.035400
5.420000    1243.892334
5.430000    1245.785645
5.440000    1247.630615
5.450000    1249.395386
5.460000    1251.190918
5.470000    1252.996338
5.480000    1254.837158
5.490000    1256.636963
5.500000    1258.379517
5.510000    1260.163574
5.520000    1261.876587
5.530000    1263.597412
5.540000    1265.299194
5.550000    1266.995605
5.560000    1268.724854
5.570000    1270.459961
5.580000    1272.260498
5.590000    1274.082642
5.600000    1275.926147
5.610000    1277.712891
5.620000    1279.510498
5.630000    1281.314209
5.640000    1283.095947
5.650000    1284.892456
5.660000    1286.660522
5.670000    1288.454102
5.680000    1290.286621
5.690000    1292.225830
5.700000    1294.149414
5.710000    1296.016235
5.720000    1297.888916
5.730000    1299.697632
5.740000    1301.512939
5.750000    1303.295288
5.760000    1305.097412
5.770000    1306.867065
5.780000    1308.696045
5.790000    1310.540527
5.800000    1312.380249
5.810000    1314.212646
5.820000    1316.097656
5.830000    1318.036011
5.840000    1319.887695
5.850000    1321.846558
5.860000    1323.741211
5.870000    1325.645142
5.880000    1327.463257
5.890000    1329.324707
5.900000    1331.141724
5.910000    1332.990723
5.920000    1334.809692
5.930000    1336.553101
5.940000    1338.383423
5.950000    1340.254395
5.960000    1342.098511
5.970000    1343.892944
5.980000    1345.754272
5.990000    1347.587524
6.000000    1349.384888
6.010000    1351.214355
6.020000    1353.066406
6.030000    1354.894043
6.040000    1356.670532
6.050000    1358.463257
6.060000    1360.270874
6.070000    1362.119263
6.080000    1363.996826
6.090000    1365.843384
6.100000    1367.664673
6.110000    1369.497192
6.120000    1371.304443
6.130000    1373.117432
6.140000    1374.940674
6.150000    1376.697266
6.160000    1378.543579
6.170000    1380.266968
6.180000    1382.006592
6.190000    1383.731201
6.200000    1385.482300
6.210000    1387.280640
6.220000    1389.112061
6.230000    1390.831787
6.240000    1392.568604
6.250000    1394.294922
6.260000    1396.039673
6.270000    1397.865356
6.280000    1399.638306
6.290000    1401.381348
6.300000    1403.074341
6.310000    1404.771729
6.320000    1406.523071
6.330000    1408.194336
6.340000    1409.892456
6.350000    1411.528320
6.360000    1413.224243
6.370000    1414.913574
6.380000    1416.566895
6.390000    1418.157959
6.400000    1419.745850
6.410000    1421.426392
6.420000    1423.098877
6.430000    1424.806396
6.440000    1426.484131
6.450000    1428.215820
6.460000    1429.855469
6.470000    1431.486450
6.480000    1433.095825
6.490000    1434.777100
6.500000    1436.500610
6.510000    1438.266479
6.520000    1439.937622
6.530000    1441.615845
6.540000    1443.271851
6.550000    1444.906006
6.560000    1446.522949
6.570000    1448.140991
6.580000    1449.765503
6.590000    1451.536255
6.600000    1453.276367
6.610000    1455.032471
6.620000    1456.711914
6.630000    1458.432861
6.640000    1460.193359
6.650000    1461.943115
6.660000    1463.734985
6.670000    1465.471436
6.680000    1467.194092
6.690000    1468.960815
6.700000    1470.775391
6.710000    1472.553833
6.720000    1474.292114
6.730000    1476.062012
6.740000    1477.854248
6.750000    1479.657715
6.760000    1481.521240
6.770000    1483.353638
6.780000    1485.086304
6.790000    1486.861572
6.800000    1488.632935
6.810000    1490.390991
6.820000    1492.146118
6.830000    1493.913574
6.840000    1495.675903
6.850000    1497.533569
6.860000    1499.388672
6.870000    1501.202515
6.880000    1503.087402
6.890000    1504.929077
6.900000    1506.773560
6.910000    1508.648560
6.920000    1510.555786
6.930000    1512.456421
6.940000    1514.304810
6.950000    1516.217163
6.960000    1518.151245
6.970000    1520.052979
6.980000    1521.938965
6.990000    1523.829712
7.000000    1525.695679
7.010000    1527.609741
7.020000    1529.439697
7.030000    1531.371948
7.040000    1533.329712
7.050000    1535.275879
7.060000    1537.203369
7.070000    1539.089355
7.080000    1540.934204
7.090000    1542.780151
7.100000    1544.654663
7.110000    1546.508545
7.120000    1548.351196
7.130000    1550.181519
7.140000    1552.073975
7.150000    1554.007935
7.160000    1555.927124
7.170000    1557.939209
7.180000    1560.009155
7.190000    1562.023560
7.200000    1563.991211
7.210000    1565.968018
7.220000    1567.925171
7.230000    1569.925659
7.240000    1571.863037
7.250000    1573.817017
7.260000    1575.821655
7.270000    1577.787720
7.280000    1579.680664
7.290000    1581.555054
7.300000    1583.431885
7.310000    1585.366211
7.320000    1587.223267
7.330000    1589.106079
7.340000    1591.046387
7.350000    1593.050415
7.360000    1595.001953
7.370000    1596.926270
7.380000    1598.833008
7.390000    1600.724243
7.400000    1602.636597
7.410000    1604.628784
7.420000    1606.649780
7.430000    1608.657349
7.440000    1610.652954
7.450000    1612.715454
7.460000    1614.786499
7.470000    1616.801147
7.480000    1618.826294
7.490000    1620.864258
7.500000    1622.927490
7.510000    1624.992676
7.520000    1627.009277
7.530000    1629.055664
7.540000    1631.120972
7.550000    1633.142944
7.560000    1635.081543
7.570000    1637.003784
7.580000    1638.918823
7.590000    1640.859253
7.600000    1642.863037
7.610000    1644.865723
7.620000    1646.801514
7.630000    1648.794189
7.640000    1650.788452
7.650000    1652.823120
7.660000    1654.837769
7.670000    1656.885376
7.680000    1658.913818
7.690000    1660.941895
7.700000    1662.972290
7.710000    1664.948975
7.720000    1667.051880
7.730000    1669.172852
7.740000    1671.292114
7.750000    1673.371948
7.760000    1675.481079
7.770000    1677.515869
7.780000    1679.548828
7.790000    1681.494751
7.800000    1683.482300
7.810000    1685.548828
7.820000    1687.612671
7.830000    1689.627930
7.840000    1691.677979
7.850000    1693.702148
7.860000    1695.647583
7.870000    1697.540283
7.880000    1699.451782
7.890000    1701.345337
7.900000    1703.229492
7.910000    1705.209595
7.920000    1707.153320
7.930000    1709.121826
7.940000    1711.036987
7.950000    1712.922363
7.960000    1714.824097
7.970000    1716.769531
7.980000    1718.732422
7.990000    1720.703613
8.000000    1722.646362
8.010000    1724.618652
8.020000    1726.562134
8.030000    1728.493652
8.040000    1730.545288
8.050000    1732.512451
8.060000    1734.414795
8.070000    1736.344727
8.080000    1738.210327
8.090000    1740.062500
8.100000    1741.924072
8.110000    1743.761230
8.120000    1745.528442
8.130000    1747.339233
8.140000    1749.142212
8.150000    1750.943604
8.160000    1752.803589
8.170000    1754.583740
8.180000    1756.311279
8.190000    1758.060547
8.200000    1759.916382
8.210000    1761.767456
8.220000    1763.665771
8.230000    1765.587524
8.240000    1767.510742
8.250000    1769.336304
8.260000    1771.227783
8.270000    1773.098022
8.280000    1775.078979
8.290000    1777.013794
8.300000    1778.914429
8.310000    1780.822144
8.320000    1782.714600
8.330000    1784.606201
8.340000    1786.508545
8.350000    1788.382324
8.360000    1790.346069
8.370000    1792.356323
8.380000    1794.303955
8.390000    1796.293213
8.400000    1798.283569
8.410000    1800.231934
8.420000    1802.203491
8.430000    1804.082642
8.440000    1806.036255
8.450000    1808.046875
8.460000    1810.010132
