#  t (ns) MSD (A^2) D = 7.9806e-07 3.54e-09 cm^2/s nu = 7.2753e-01 9.70e-04
0.000000    -0.000343
0.010000    8.112030
0.020000    13.190929
0.030000    17.730434
0.040000    21.879036
0.050000    25.733335
0.060000    29.351412
0.070000    32.832222
0.080000    36.145870
0.090000    39.289562
0.100000    42.301441
0.110000    45.221996
0.120000    48.067135
0.130000    50.827221
0.140000    53.468262
0.150000    56.004417
0.160000    58.487522
0.170000    60.962894
0.180000    63.384037
0.190000    65.753677
0.200000    68.064415
0.210000    70.374413
0.220000    72.604538
0.230000    74.805946
0.240000    76.966705
0.250000    79.103867
0.260000    81.229576
0.270000    83.320427
0.280000    85.343895
0.290000    87.352913
0.300000    89.346443
0.310000    91.285530
0.320000    93.234039
0.330000    95.148369
0.340000    97.065453
0.350000    98.941887
0.360000    100.765450
0.370000    102.535675
0.380000    104.249413
0.390000    105.974228
0.400000    107.712349
0.410000    109.442123
0.420000    111.132988
0.430000    112.783432
0.440000    114.425880
0.450000    116.011871
0.460000    117.596481
0.470000    119.149246
0.480000    120.666969
0.490000    122.194626
0.500000    123.721581
0.510000    125.197289
0.520000    126.693527
0.530000    128.228622
0.540000    129.732635
0.550000    131.202667
0.560000    132.625580
0.570000    134.031769
0.580000    135.457138
0.590000    136.871750
0.600000    138.239655
0.610000    139.632202
0.620000    140.972748
0.630000    142.355682
0.640000    143.704544
0.650000    145.033707
0.660000    146.378189
0.670000    147.731873
0.680000    149.034317
0.690000    150.360748
0.700000    151.661163
0.710000    152.982254
0.720000    154.293930
0.730000    155.587173
0.740000    156.870789
0.750000    158.169250
0.760000    159.444305
0.770000    160.700409
0.780000    161.968552
0.790000    163.182053
0.800000    164.414093
0.810000    165.650177
0.820000    166.895386
0.830000    168.134186
0.840000    169.374649
0.850000    170.595551
0.860000    171.838821
0.870000    173.122543
0.880000    174.344986
0.890000    175.566711
0.900000    176.760986
0.910000    177.970779
0.920000    179.191132
0.930000    180.353180
0.940000    181.493851
0.950000    182.664932
0.960000    183.846802
0.970000    185.021606
0.980000    186.194839
0.990000    187.347809
1.000000    188.502029
1.010000    189.677933
1.020000    190.850189
1.030000    192.023331
1.040000    193.145386
1.050000    194.287994
1.060000    195.436707
1.070000    196.598602
1.080000    197.717041
1.090000    198.810699
1.100000    199.934860
1.110000    201.038849
1.120000    202.147064
1.130000    203.250931
1.140000    204.338242
1.150000    205.399323
1.160000    206.471054
1.170000    207.517395
1.180000    208.595306
1.190000    209.687927
1.200000    210.729996
1.210000    211.751541
1.220000    212.781937
1.230000    213.820618
1.240000    214.859360
1.250000    215.905548
1.260000    216.909973
1.270000    217.942520
1.280000    218.970215
1.290000    220.024628
1.300000    221.047745
1.310000    222.083679
1.320000    223.100952
1.330000    224.149612
1.340000    225.169479
1.350000    226.209641
1.360000    227.264252
1.370000    228.319107
1.380000    229.366638
1.390000    230.399536
1.400000    231.410309
1.410000    232.414734
1.420000    233.380508
1.430000    234.350037
1.440000    235.304810
1.450000    236.241730
1.460000    237.185638
1.470000    238.136383
1.480000    239.082001
1.490000    240.038574
1.500000    240.963135
1.510000    241.896820
1.520000    242.818985
1.530000    243.740173
1.540000    244.659515
1.550000    245.527100
1.560000    246.404541
1.570000    247.309372
1.580000    248.216263
1.590000    249.145004
1.600000    250.055359
1.610000    250.949966
1.620000    251.819275
1.630000    252.718460
1.640000    253.606079
1.650000    254.506363
1.660000    255.386368
1.670000    256.285187
1.680000    257.162689
1.690000    258.059357
1.700000    258.957428
1.710000    259.840637
1.720000    260.732727
1.730000    261.635406
1.740000    262.527832
1.750000    263.424927
1.760000    264.307404
1.770000    265.205505
1.780000    266.102631
1.790000    266.993988
1.800000    267.905121
1.810000    268.809113
1.820000    269.689423
1.830000    270.562317
1.840000    271.431549
1.850000    272.299835
1.860000    273.152496
1.870000    274.014221
1.880000    274.919556
1.890000    275.803192
1.900000    276.707642
1.910000    277.600037
1.920000    278.453491
1.930000    279.330872
1.940000    280.176300
1.950000    281.042786
1.960000    281.885864
1.970000    282.744781
1.980000    283.586487
1.990000    284.433167
2.000000    285.281738
2.010000    286.164032
2.020000    287.039856
2.030000    287.893585
2.040000    288.758392
2.050000    289.645752
2.060000    290.558563
2.070000    291.450684
2.080000    292.310303
2.090000    293.154358
2.100000    293.987305
2.110000    294.809540
2.120000    295.620575
2.130000    296.447693
2.140000    297.273743
2.150000    298.125732
2.160000    298.957336
2.170000    299.813843
2.180000    300.679474
2.190000    301.555206
2.200000    302.434387
2.210000    303.304565
2.220000    304.179291
2.230000    305.063812
2.240000    305.935089
2.250000    306.832947
2.260000    307.725983
2.270000    308.584778
2.280000    309.457733
2.290000    310.326385
2.300000    311.225952
2.310000    312.115631
2.320000    313.000916
2.330000    313.859100
2.340000    314.731049
2.350000    315.586884
2.360000    316.451721
2.370000    317.330383
2.380000    318.201904
2.390000    319.063293
2.400000    319.902557
2.410000    320.776093
2.420000    321.618042
2.430000    322.474030
2.440000    323.279816
2.450000    324.081299
2.460000    324.907288
2.470000    325.733826
2.480000    326.562927
2.490000    327.365875
2.500000    328.170715
2.510000    328.976288
2.520000    329.772980
2.530000    330.579224
2.540000    331.385345
2.550000    332.195038
2.560000    333.015869
2.570000    333.803070
2.580000    334.625824
2.590000    335.399567
2.600000    336.191650
2.610000    337.005005
2.620000    337.824005
2.630000    338.637421
2.640000    339.451843
2.650000    340.266785
2.660000    341.093262
2.670000    341.957947
2.680000    342.776245
2.690000    343.587158
2.700000    344.419342
2.710000    345.227020
2.720000    346.040619
2.730000    346.824493
2.740000    347.657867
2.750000    348.469147
2.760000    349.316437
2.770000    350.135834
2.780000    350.942902
2.790000    351.740448
2.800000    352.565491
2.810000    353.385529
2.820000    354.188660
2.830000    354.983063
2.840000    355.760040
2.850000    356.567444
2.860000    357.392548
2.870000    358.202393
2.880000    359.017334
2.890000    359.843719
2.900000    360.649994
2.910000    361.477631
2.920000    362.258911
2.930000    363.031372
2.940000    363.825897
2.950000    364.609894
2.960000    365.409119
2.970000    366.208923
2.980000    366.986084
2.990000    367.770386
3.000000    368.566559
3.010000    369.356995
3.020000    370.154938
3.030000    370.906433
3.040000    371.674225
3.050000    372.449310
3.060000    373.211151
3.070000    373.994385
3.080000    374.747620
3.090000    375.486725
3.100000    376.207153
3.110000    376.926086
3.120000    377.603760
3.130000    378.336792
3.140000    379.076904
3.150000    379.808105
3.160000    380.526489
3.170000    381.225739
3.180000    381.943970
3.190000    382.631531
3.200000    383.330139
3.210000    384.027618
3.220000    384.690216
3.230000    385.357666
3.240000    386.024445
3.250000    386.734802
3.260000    387.460083
3.270000    388.168304
3.280000    388.893616
3.290000    389.601746
3.300000    390.337708
3.310000    391.084808
3.320000    391.828430
3.330000    392.533295
3.340000    393.234711
3.350000    393.945679
3.360000    394.682556
3.370000    395.393738
3.380000    396.087372
3.390000    396.779785
3.400000    397.477020
3.410000    398.208893
3.420000    398.911774
3.430000    399.612183
3.440000    400.319122
3.450000    401.014862
3.460000    401.696594
3.470000    402.407196
3.480000    403.091888
3.490000    403.757019
3.500000    404.431305
3.510000    405.105957
3.520000    405.812073
3.530000    406.502960
3.540000    407.188171
3.550000    407.873810
3.560000    408.553894
3.570000    409.232300
3.580000    409.943573
3.590000    410.603699
3.600000    411.230072
3.610000    411.889526
3.620000    412.588806
3.630000    413.294281
3.640000    413.984375
3.650000    414.674652
3.660000    415.398743
3.670000    416.121918
3.680000    416.818878
3.690000    417.515320
3.700000    418.204712
3.710000    418.887421
3.720000    419.572021
3.730000    420.251923
3.740000    420.965210
3.750000    421.646912
3.760000    422.328247
3.770000    423.027679
3.780000    423.742462
3.790000    424.464417
3.800000    425.170074
3.810000    425.865295
3.820000    426.571259
3.830000    427.267151
3.840000    427.942932
3.850000    428.624939
3.860000    429.306519
3.870000    429.987183
3.880000    430.694794
3.890000    431.359283
3.900000    432.020905
3.910000    432.677032
3.920000    433.337921
3.930000    433.995178
3.940000    434.660309
3.950000    435.335114
3.960000    435.996887
3.970000    436.630341
3.980000    437.264069
3.990000    437.932770
4.000000    438.617767
4.010000    439.279541
4.020000    439.946991
4.030000    440.628937
4.040000    441.308563
4.050000    441.958710
4.060000    442.577515
4.070000    443.199371
4.080000    443.840851
4.090000    444.471588
4.100000    445.099976
4.110000    445.746063
4.120000    446.415222
4.130000    447.074219
4.140000    447.740021
4.150000    448.397186
4.160000    449.080505
4.170000    449.724548
4.180000    450.381409
4.190000    451.042114
4.200000    451.744568
4.210000    452.468048
4.220000    453.142975
4.230000    453.833832
4.240000    454.513123
4.250000    455.208191
4.260000    455.895538
4.270000    456.562897
4.280000    457.201263
4.290000    457.874298
4.300000    458.538361
4.310000    459.202515
4.320000    459.815613
4.330000    460.465637
4.340000    461.108032
4.350000    461.770660
4.360000    462.419983
4.370000    463.039307
4.380000    463.681915
4.390000    464.333710
4.400000    464.951721
4.410000    465.602997
4.420000    466.216858
4.430000    466.861572
4.440000    467.494812
4.450000    468.115875
4.460000    468.727692
4.470000    469.328705
4.480000    469.979584
4.490000    470.625519
4.500000    471.286102
4.510000    471.936646
4.520000    472.579285
4.530000    473.239777
4.540000    473.898254
4.550000    474.540619
4.560000    475.163116
4.570000    475.794586
4.580000    476.433746
4.590000    477.045898
4.600000    477.650085
4.610000    478.288055
4.620000    478.904968
4.630000    479.533173
4.640000    480.118774
4.650000    480.685852
4.660000    481.257843
4.670000    481.818634
4.680000    482.389374
4.690000    482.969666
4.700000    483.521698
4.710000    484.074310
4.720000    484.592468
4.730000    485.119781
4.740000    485.652069
4.750000    486.189697
4.760000    486.720490
4.770000    487.285004
4.780000    487.841949
4.790000    488.433868
4.800000    489.027008
4.810000    489.578644
4.820000    490.165527
4.830000    490.757446
4.840000    491.319550
4.850000    491.903931
4.860000    492.502747
4.870000    493.101257
4.880000    493.657562
4.890000    494.212616
4.900000    494.773956
4.910000    495.320526
4.920000    495.872314
4.930000    496.427704
4.940000    496.980560
4.950000    497.528046
4.960000    498.092926
4.970000    498.641357
4.980000    499.137238
4.990000    499.682007
5.000000    500.223816
5.010000    500.763306
5.020000    501.273102
5.030000    501.827454
5.040000    502.403839
5.050000    502.963531
5.060000    503.533936
5.070000    504.112244
5.080000    504.663300
5.090000    505.239380
5.100000    505.805023
5.110000    506.369720
5.120000    506.883057
5.130000    507.398682
5.140000    507.920319
5.150000    508.457367
5.160000    508.996521
5.170000    509.528687
5.180000    510.083588
5.190000    510.667145
5.200000    511.220947
5.210000    511.796021
5.220000    512.405579
5.230000    513.007507
5.240000    513.641052
5.250000    514.251770
5.260000    514.856018
5.270000    515.460876
5.280000    516.060791
5.290000    516.671387
5.300000    517.248291
5.310000    517.819458
5.320000    518.411926
5.330000    518.989685
5.340000    519.581970
5.350000    520.203003
5.360000    520.799927
5.370000    521.440308
5.380000    522.021729
5.390000    522.600830
5.400000    523.152771
5.410000    523.684937
5.420000    524.224304
5.430000    524.778381
5.440000    525.340942
5.450000    525.905640
5.460000    526.471924
5.470000    527.020752
5.480000    527.620728
5.490000    528.200195
5.500000    528.755005
5.510000    529.339661
5.520000    529.938049
5.530000    530.529114
5.540000    531.132324
5.550000    531.731262
5.560000    532.335754
5.570000    532.926147
5.580000    533.480408
5.590000    534.047058
5.600000    534.612183
5.610000    535.175049
5.620000    535.752502
5.630000    536.289490
5.640000    536.851501
5.650000    537.372375
5.660000    537.906982
5.670000    538.465759
5.680000    539.001648
5.690000    539.548950
5.700000    540.079163
5.710000    540.624451
5.720000    541.139648
5.730000    541.670654
5.740000    542.219299
5.750000    542.753479
5.760000    543.308105
5.770000    543.819702
5.780000    544.318726
5.790000    544.819641
5.800000    545.314636
5.810000    545.812805
5.820000    546.295471
5.830000    546.779480
5.840000    547.296936
5.850000    547.828125
5.860000    548.366516
5.870000    548.891174
5.880000    549.392090
5.890000    549.900085
5.900000    550.436707
5.910000    551.009155
5.920000    551.558960
5.930000    552.165283
5.940000    552.774109
5.950000    553.385498
5.960000    554.006348
5.970000    554.629456
5.980000    555.250488
5.990000    555.906250
6.000000    556.537659
6.010000    557.190674
6.020000    557.799927
6.030000    558.451660
6.040000    559.070801
6.050000    559.723511
6.060000    560.336609
6.070000    560.998352
6.080000    561.623779
6.090000    562.268250
6.100000    562.916321
6.110000    563.524109
6.120000    564.144104
6.130000    564.770325
6.140000    565.374634
6.150000    565.997681
6.160000    566.621338
6.170000    567.217957
6.180000    567.835632
6.190000    568.418884
6.200000    569.022766
6.210000    569.629700
6.220000    570.238037
6.230000    570.857056
6.240000    571.467285
6.250000    572.055054
6.260000    572.680420
6.270000    573.314209
6.280000    573.942322
6.290000    574.545959
6.300000    575.167175
6.310000    575.776489
6.320000    576.377686
6.330000    576.968018
6.340000    577.562805
6.350000    578.136963
6.360000    578.724854
6.370000    579.311279
6.380000    579.937256
6.390000    580.585388
6.400000    581.208740
6.410000    581.827637
6.420000    582.442383
6.430000    583.086060
6.440000    583.718201
6.450000    584.344971
6.460000    584.990967
6.470000    585.628723
6.480000    586.278992
6.490000    586.908203
6.500000    587.585693
6.510000    588.236694
6.520000    588.879028
6.530000    589.517883
6.540000    590.165222
6.550000    590.798218
6.560000    591.404419
6.570000    591.978882
6.580000    592.566101
6.590000    593.133118
6.600000    593.732666
6.610000    594.329468
6.620000    594.906128
6.630000    595.459045
6.640000    596.043274
6.650000    596.616821
6.660000    597.204102
6.670000    597.771667
6.680000    598.351318
6.690000    598.918579
6.700000    599.452332
6.710000    600.017212
6.720000    600.558167
6.730000    601.140015
6.740000    601.743896
6.750000    602.319214
6.760000    602.883057
6.770000    603.452820
6.780000    604.046265
6.790000    604.638062
6.800000    605.166382
6.810000    605.699158
6.820000    606.218567
6.830000    606.742310
6.840000    607.277100
6.850000    607.832825
6.860000    608.378235
6.870000    608.889648
6.880000    609.367004
6.890000    609.852783
6.900000    610.328613
6.910000    610.820374
6.920000    611.300598
6.930000    611.824036
6.940000    612.305359
6.950000    612.800598
6.960000    613.293884
6.970000    613.790100
6.980000    614.325989
6.990000    614.843872
7.000000    615.404053
7.010000    615.960144
7.020000    616.524780
7.030000    617.094055
7.040000    617.665710
7.050000    618.182190
7.060000    618.712158
7.070000    619.249512
7.080000    619.817505
7.090000    620.327393
7.100000    620.861206
7.110000    621.379333
7.120000    621.932312
7.130000    622.458069
7.140000    623.006409
7.150000    623.550842
7.160000    624.118530
7.170000    624.675903
7.180000    625.230896
7.190000    625.755249
7.200000    626.295898
7.210000    626.855042
7.220000    627.392700
7.230000    627.958740
7.240000    628.506836
7.250000    629.057861
7.260000    629.604248
7.270000    630.155762
7.280000    630.703613
7.290000    631.250427
7.300000    631.767334
7.310000    632.307190
7.320000    632.841003
7.330000    633.380798
7.340000    633.897583
7.350000    634.381226
7.360000    634.890076
7.370000    635.378601
7.380000    635.889648
7.390000    636.398438
7.400000    636.903076
7.410000    637.421753
7.420000    637.930359
7.430000    638.434753
7.440000    638.961365
7.450000    639.489624
7.460000    640.000000
7.470000    640.549927
7.480000    641.082458
7.490000    641.591187
7.500000    642.096924
7.510000    642.632874
7.520000    643.148926
7.530000    643.672852
7.540000    644.182068
7.550000    644.720398
7.560000    645.271729
7.570000    645.812439
7.580000    646.393494
7.590000    646.987671
7.600000    647.564758
7.610000    648.124573
7.620000    648.656860
7.630000    649.218018
7.640000    649.814148
7.650000    650.405823
7.660000    650.951782
7.670000    651.487610
7.680000    652.082214
7.690000    652.659668
7.700000    653.227478
7.710000    653.828735
7.720000    654.407166
7.730000    654.993164
7.740000    655.592529
7.750000    656.171692
7.760000    656.753662
7.770000    657.291748
7.780000    657.862671
7.790000    658.409668
7.800000    658.931274
7.810000    659.460815
7.820000    660.018616
7.830000    660.537903
7.840000    661.075439
7.850000    661.638367
7.860000    662.156189
7.870000    662.680359
7.880000    663.257812
7.890000    663.845825
7.900000    664.450317
7.910000    665.044128
7.920000    665.615112
7.930000    666.211304
7.940000    666.809631
7.950000    667.418396
7.960000    668.038818
7.970000    668.651001
7.980000    669.257507
7.990000    669.819153
8.000000    670.370605
8.010000    670.940002
8.020000    671.544312
8.030000    672.119446
8.040000    672.712097
8.050000    673.305725
8.060000    673.888123
8.070000    674.472961
8.080000    675.061646
8.090000    675.684021
8.100000    676.287109
8.110000    676.889465
8.120000    677.487976
8.130000    678.132324
8.140000    678.743286
8.150000    679.319824
8.160000    679.926208
8.170000    680.525452
8.180000    681.093201
8.190000    681.670654
8.200000    682.264954
8.210000    682.866821
8.220000    683.539490
8.230000    684.216919
8.240000    684.866211
8.250000    685.502625
8.260000    686.134827
8.270000    686.755310
8.280000    687.402710
8.290000    688.073914
8.300000    688.740601
8.310000    689.436279
8.320000    690.154114
8.330000    690.870422
8.340000    691.545227
8.350000    692.228760
8.360000    692.923828
8.370000    693.641968
8.380000    694.311707
8.390000    695.010681
8.400000    695.721558
8.410000    696.397400
8.420000    697.030884
8.430000    697.678040
8.440000    698.335754
8.450000    699.002441
8.460000    699.688416
8.470000    700.336365
8.480000    700.960632
8.490000    701.610229
8.500000    702.264221
8.510000    702.911926
8.520000    703.571411
8.530000    704.233765
8.540000    704.898804
8.550000    705.569153
8.560000    706.231323
8.570000    706.842163
8.580000    707.481079
8.590000    708.123291
8.600000    708.776611
8.610000    709.410400
8.620000    710.026611
8.630000    710.638367
8.640000    711.278442
8.650000    711.868103
8.660000    712.482727
