#  t (ns) MSD (A^2) D = 1.0422e-06 1.05e-08 cm^2/s nu = 6.7534e-01 6.29e-04
0.000000    -0.000123
0.010000    9.883408
0.020000    16.521538
0.030000    22.423155
0.040000    27.845367
0.050000    32.941914
0.060000    37.738697
0.070000    42.252304
0.080000    46.573254
0.090000    50.703239
0.100000    54.713306
0.110000    58.565117
0.120000    62.292175
0.130000    65.910873
0.140000    69.439262
0.150000    72.879868
0.160000    76.173866
0.170000    79.430847
0.180000    82.578224
0.190000    85.673500
0.200000    88.680382
0.210000    91.643005
0.220000    94.471077
0.230000    97.243530
0.240000    99.978371
0.250000    102.723160
0.260000    105.419144
0.270000    108.110901
0.280000    110.678177
0.290000    113.169060
0.300000    115.628517
0.310000    118.075966
0.320000    120.470314
0.330000    122.876892
0.340000    125.266472
0.350000    127.597939
0.360000    129.889420
0.370000    132.142838
0.380000    134.387711
0.390000    136.618408
0.400000    138.809738
0.410000    140.986420
0.420000    143.154648
0.430000    145.282211
0.440000    147.370850
0.450000    149.455414
0.460000    151.511536
0.470000    153.520645
0.480000    155.501221
0.490000    157.522537
0.500000    159.555862
0.510000    161.581146
0.520000    163.625900
0.530000    165.646622
0.540000    167.639679
0.550000    169.582626
0.560000    171.523788
0.570000    173.462234
0.580000    175.337204
0.590000    177.182999
0.600000    179.055084
0.610000    180.903473
0.620000    182.704117
0.630000    184.453995
0.640000    186.225174
0.650000    187.982452
0.660000    189.771561
0.670000    191.519684
0.680000    193.300888
0.690000    195.054871
0.700000    196.796402
0.710000    198.560455
0.720000    200.329407
0.730000    202.089890
0.740000    203.846008
0.750000    205.592102
0.760000    207.341980
0.770000    209.057755
0.780000    210.787277
0.790000    212.462753
0.800000    214.136551
0.810000    215.783829
0.820000    217.392059
0.830000    218.990524
0.840000    220.532516
0.850000    222.107941
0.860000    223.641251
0.870000    225.204407
0.880000    226.765411
0.890000    228.311829
0.900000    229.890732
0.910000    231.494995
0.920000    233.024475
0.930000    234.548538
0.940000    236.089706
0.950000    237.673492
0.960000    239.250931
0.970000    240.835297
0.980000    242.418732
0.990000    243.938141
1.000000    245.448654
1.010000    246.972015
1.020000    248.529373
1.030000    250.085434
1.040000    251.552063
1.050000    252.981735
1.060000    254.450760
1.070000    255.894821
1.080000    257.364227
1.090000    258.799164
1.100000    260.238251
1.110000    261.678680
1.120000    263.070923
1.130000    264.427307
1.140000    265.781128
1.150000    267.131409
1.160000    268.478607
1.170000    269.789276
1.180000    271.174347
1.190000    272.548737
1.200000    273.898376
1.210000    275.260468
1.220000    276.620697
1.230000    278.031097
1.240000    279.436615
1.250000    280.812622
1.260000    282.181976
1.270000    283.539154
1.280000    284.897247
1.290000    286.317657
1.300000    287.693756
1.310000    289.070435
1.320000    290.443512
1.330000    291.795868
1.340000    293.099579
1.350000    294.463684
1.360000    295.830933
1.370000    297.170013
1.380000    298.508057
1.390000    299.851349
1.400000    301.162872
1.410000    302.441315
1.420000    303.696503
1.430000    304.978577
1.440000    306.282623
1.450000    307.578796
1.460000    308.837708
1.470000    310.066498
1.480000    311.311676
1.490000    312.585327
1.500000    313.842102
1.510000    315.124878
1.520000    316.387085
1.530000    317.675171
1.540000    318.995331
1.550000    320.290222
1.560000    321.555847
1.570000    322.846832
1.580000    324.141724
1.590000    325.431793
1.600000    326.692963
1.610000    327.940887
1.620000    329.150604
1.630000    330.358704
1.640000    331.570465
1.650000    332.797882
1.660000    334.050537
1.670000    335.289246
1.680000    336.532410
1.690000    337.768921
1.700000    339.008972
1.710000    340.280060
1.720000    341.514648
1.730000    342.743073
1.740000    344.040649
1.750000    345.309265
1.760000    346.564972
1.770000    347.810089
1.780000    349.067627
1.790000    350.328827
1.800000    351.568512
1.810000    352.784119
1.820000    354.011597
1.830000    355.254852
1.840000    356.521088
1.850000    357.771973
1.860000    359.033142
1.870000    360.250549
1.880000    361.519867
1.890000    362.808777
1.900000    364.089569
1.910000    365.367249
1.920000    366.659851
1.930000    367.957581
1.940000    369.253510
1.950000    370.528015
1.960000    371.820709
1.970000    373.117981
1.980000    374.362732
1.990000    375.621521
2.000000    376.876556
2.010000    378.143402
2.020000    379.407257
2.030000    380.681610
2.040000    381.937225
2.050000    383.205872
2.060000    384.484070
2.070000    385.695312
2.080000    386.869171
2.090000    388.019775
2.100000    389.196106
2.110000    390.370361
2.120000    391.544006
2.130000    392.702209
2.140000    393.828949
2.150000    394.959076
2.160000    396.113678
2.170000    397.269867
2.180000    398.471008
2.190000    399.654327
2.200000    400.834778
2.210000    402.063446
2.220000    403.263580
2.230000    404.497253
2.240000    405.674438
2.250000    406.850739
2.260000    408.023438
2.270000    409.183929
2.280000    410.340454
2.290000    411.483765
2.300000    412.656158
2.310000    413.808807
2.320000    414.987061
2.330000    416.140900
2.340000    417.310059
2.350000    418.450623
2.360000    419.602539
2.370000    420.727478
2.380000    421.870422
2.390000    422.997040
2.400000    424.143127
2.410000    425.332947
2.420000    426.503326
2.430000    427.672852
2.440000    428.838318
2.450000    429.951782
2.460000    431.077393
2.470000    432.195831
2.480000    433.326355
2.490000    434.447937
2.500000    435.644867
2.510000    436.756989
2.520000    437.875122
2.530000    438.999512
2.540000    440.116150
2.550000    441.260406
2.560000    442.366943
2.570000    443.465179
2.580000    444.584900
2.590000    445.648651
2.600000    446.728912
2.610000    447.852844
2.620000    448.951660
2.630000    450.081360
2.640000    451.221893
2.650000    452.347809
2.660000    453.451752
2.670000    454.582031
2.680000    455.707245
2.690000    456.816620
2.700000    457.920685
2.710000    459.022675
2.720000    460.133514
2.730000    461.248688
2.740000    462.336395
2.750000    463.422180
2.760000    464.507935
2.770000    465.562042
2.780000    466.591125
2.790000    467.636780
2.800000    468.692749
2.810000    469.709839
2.820000    470.685760
2.830000    471.655640
2.840000    472.661591
2.850000    473.672302
2.860000    474.713287
2.870000    475.741119
2.880000    476.766327
2.890000    477.782501
2.900000    478.789276
2.910000    479.803467
2.920000    480.832031
2.930000    481.855011
2.940000    482.897552
2.950000    483.977875
2.960000    485.049286
2.970000    486.105530
2.980000    487.136505
2.990000    488.157837
3.000000    489.167511
3.010000    490.191132
3.020000    491.217590
3.030000    492.211090
3.040000    493.182495
3.050000    494.156311
3.060000    495.116821
3.070000    496.093994
3.080000    497.015869
3.090000    497.948761
3.100000    498.909424
3.110000    499.865814
3.120000    500.803497
3.130000    501.771667
3.140000    502.777588
3.150000    503.734589
3.160000    504.706940
3.170000    505.670502
3.180000    506.586334
3.190000    507.529205
3.200000    508.471649
3.210000    509.366577
3.220000    510.266907
3.230000    511.225555
3.240000    512.176208
3.250000    513.127197
3.260000    514.066101
3.270000    515.011902
3.280000    516.010742
3.290000    516.970703
3.300000    517.951782
3.310000    518.931824
3.320000    519.889465
3.330000    520.846252
3.340000    521.822815
3.350000    522.832825
3.360000    523.821472
3.370000    524.819885
3.380000    525.794678
3.390000    526.774597
3.400000    527.763062
3.410000    528.776123
3.420000    529.845581
3.430000    530.887329
3.440000    531.939148
3.450000    532.986633
3.460000    534.036011
3.470000    535.100403
3.480000    536.145264
3.490000    537.212585
3.500000    538.252441
3.510000    539.286011
3.520000    540.260742
3.530000    541.255188
3.540000    542.216003
3.550000    543.220398
3.560000    544.234924
3.570000    545.260071
3.580000    546.262268
3.590000    547.273376
3.600000    548.224487
3.610000    549.186401
3.620000    550.138794
3.630000    551.127441
3.640000    552.076355
3.650000    553.012329
3.660000    553.964600
3.670000    554.893982
3.680000    555.802673
3.690000    556.759705
3.700000    557.707520
3.710000    558.646423
3.720000    559.546509
3.730000    560.453735
3.740000    561.341125
3.750000    562.242859
3.760000    563.155396
3.770000    564.027649
3.780000    564.898743
3.790000    565.803833
3.800000    566.723755
3.810000    567.617554
3.820000    568.526794
3.830000    569.467896
3.840000    570.367188
3.850000    571.281189
3.860000    572.179749
3.870000    573.118835
3.880000    574.095703
3.890000    575.072021
3.900000    575.990295
3.910000    576.927124
3.920000    577.855530
3.930000    578.775513
3.940000    579.680908
3.950000    580.591553
3.960000    581.458862
3.970000    582.327454
3.980000    583.187439
3.990000    584.051758
4.000000    584.913330
4.010000    585.787170
4.020000    586.657349
4.030000    587.555542
4.040000    588.409241
4.050000    589.262634
4.060000    590.121338
4.070000    590.961426
4.080000    591.783569
4.090000    592.573364
4.100000    593.403259
4.110000    594.276550
4.120000    595.158142
4.130000    596.017090
4.140000    596.903381
4.150000    597.767395
4.160000    598.633240
4.170000    599.449951
4.180000    600.326965
4.190000    601.211792
4.200000    602.133545
4.210000    603.060974
4.220000    603.988220
4.230000    604.945801
4.240000    605.900024
4.250000    606.851807
4.260000    607.824768
4.270000    608.750671
4.280000    609.670776
4.290000    610.585327
4.300000    611.482910
4.310000    612.360962
4.320000    613.266785
4.330000    614.244873
4.340000    615.182739
4.350000    616.096619
4.360000    617.022766
4.370000    617.925598
4.380000    618.820862
4.390000    619.717773
4.400000    620.654907
4.410000    621.575378
4.420000    622.541626
4.430000    623.531921
4.440000    624.517700
4.450000    625.469849
4.460000    626.433533
4.470000    627.367432
4.480000    628.336426
4.490000    629.317078
4.500000    630.264648
4.510000    631.167114
4.520000    632.065979
4.530000    632.955627
4.540000    633.873657
4.550000    634.790649
4.560000    635.711914
4.570000    636.621399
4.580000    637.581665
4.590000    638.553833
4.600000    639.534973
4.610000    640.537048
4.620000    641.493103
4.630000    642.407654
4.640000    643.294250
4.650000    644.192444
4.660000    645.141663
4.670000    646.071533
4.680000    646.996765
4.690000    647.900269
4.700000    648.801392
4.710000    649.656372
4.720000    650.545105
4.730000    651.470825
4.740000    652.371155
4.750000    653.266479
4.760000    654.152710
4.770000    655.062256
4.780000    655.935303
4.790000    656.837646
4.800000    657.734924
4.810000    658.590576
4.820000    659.477539
4.830000    660.378967
4.840000    661.244873
4.850000    662.061951
4.860000    662.875000
4.870000    663.742432
4.880000    664.566528
4.890000    665.371765
4.900000    666.176453
4.910000    666.973877
4.920000    667.775146
4.930000    668.591980
4.940000    669.406006
4.950000    670.264099
4.960000    671.143982
4.970000    672.018066
4.980000    672.916321
4.990000    673.851624
5.000000    674.787231
5.010000    675.712280
5.020000    676.646301
5.030000    677.600037
5.040000    678.575867
5.050000    679.525635
5.060000    680.505859
5.070000    681.520691
5.080000    682.518921
5.090000    683.492493
5.100000    684.511536
5.110000    685.501038
5.120000    686.502319
5.130000    687.512451
5.140000    688.478271
5.150000    689.441956
5.160000    690.357056
5.170000    691.285034
5.180000    692.172180
5.190000    693.055420
5.200000    693.914368
5.210000    694.744263
5.220000    695.554932
5.230000    696.396729
5.240000    697.264771
5.250000    698.109192
5.260000    698.930786
5.270000    699.785278
5.280000    700.612610
5.290000    701.430786
5.300000    702.254822
5.310000    703.079651
5.320000    703.928772
5.330000    704.790222
5.340000    705.625488
5.350000    706.456848
5.360000    707.356628
5.370000    708.240479
5.380000    709.153198
5.390000    710.031250
5.400000    710.890442
5.410000    711.772339
5.420000    712.689392
5.430000    713.651245
5.440000    714.599670
5.450000    715.520508
5.460000    716.503479
5.470000    717.460205
5.480000    718.382751
5.490000    719.271179
5.500000    720.140198
5.510000    721.059265
5.520000    721.988586
5.530000    722.883362
5.540000    723.731995
5.550000    724.623047
5.560000    725.498291
5.570000    726.336670
5.580000    727.218933
5.590000    728.065002
5.600000    728.939575
5.610000    729.802856
5.620000    730.696533
5.630000    731.578369
5.640000    732.467834
5.650000    733.333069
5.660000    734.235291
5.670000    735.123779
5.680000    735.953857
5.690000    736.770874
5.700000    737.608276
5.710000    738.443604
5.720000    739.319336
5.730000    740.216492
5.740000    741.093384
5.750000    742.009399
5.760000    742.924500
5.770000    743.814148
5.780000    744.734619
5.790000    745.637634
5.800000    746.543823
5.810000    747.404541
5.820000    748.277222
5.830000    749.101074
5.840000    749.964783
5.850000    750.790833
5.860000    751.637878
5.870000    752.442932
5.880000    753.240356
5.890000    754.048523
5.900000    754.890320
5.910000    755.704285
5.920000    756.585327
5.930000    757.460205
5.940000    758.278503
5.950000    759.156128
5.960000    759.984802
5.970000    760.854126
5.980000    761.740784
5.990000    762.576416
6.000000    763.380615
6.010000    764.226501
6.020000    765.091370
6.030000    765.922913
6.040000    766.765503
6.050000    767.575500
6.060000    768.387695
6.070000    769.196960
6.080000    770.017273
6.090000    770.856689
6.100000    771.687683
6.110000    772.535706
6.120000    773.391479
6.130000    774.277527
6.140000    775.145935
6.150000    776.025330
6.160000    776.907654
6.170000    777.818359
6.180000    778.703247
6.190000    779.591064
6.200000    780.441345
6.210000    781.322266
6.220000    782.164062
6.230000    783.023132
6.240000    783.902100
6.250000    784.819641
6.260000    785.736816
6.270000    786.634155
6.280000    787.546448
6.290000    788.452942
6.300000    789.365540
6.310000    790.250488
6.320000    791.158813
6.330000    792.086060
6.340000    792.987427
6.350000    793.874084
6.360000    794.747192
6.370000    795.640259
6.380000    796.543396
6.390000    797.422424
6.400000    798.341553
6.410000    799.221008
6.420000    800.115173
6.430000    801.008179
6.440000    801.870789
6.450000    802.781555
6.460000    803.663635
6.470000    804.535645
6.480000    805.398254
6.490000    806.236938
6.500000    807.103088
6.510000    808.033142
6.520000    808.929077
6.530000    809.817322
6.540000    810.705383
6.550000    811.564575
6.560000    812.418701
6.570000    813.318542
6.580000    814.210632
6.590000    815.110901
6.600000    815.954956
6.610000    816.818176
6.620000    817.613892
6.630000    818.429749
6.640000    819.243835
6.650000    820.056824
6.660000    820.879028
6.670000    821.729614
6.680000    822.577759
6.690000    823.419312
6.700000    824.298950
6.710000    825.146790
6.720000    826.015381
6.730000    826.866089
6.740000    827.717651
6.750000    828.525085
6.760000    829.356506
6.770000    830.210754
6.780000    831.068115
6.790000    831.940186
6.800000    832.784424
6.810000    833.708008
6.820000    834.656921
6.830000    835.573181
6.840000    836.489502
6.850000    837.385193
6.860000    838.266968
6.870000    839.150879
6.880000    840.070129
6.890000    840.994507
6.900000    841.951721
6.910000    842.879944
6.920000    843.799866
6.930000    844.740417
6.940000    845.679382
6.950000    846.566345
6.960000    847.466370
6.970000    848.390259
6.980000    849.312622
6.990000    850.226257
7.000000    851.106445
7.010000    851.967407
7.020000    852.877808
7.030000    853.756653
7.040000    854.574585
7.050000    855.412415
7.060000    856.302795
7.070000    857.118591
7.080000    857.913269
7.090000    858.698303
7.100000    859.479919
7.110000    860.296021
7.120000    861.109863
7.130000    861.927429
7.140000    862.758179
7.150000    863.566040
7.160000    864.372070
7.170000    865.179565
7.180000    866.002502
7.190000    866.843994
7.200000    867.663147
7.210000    868.495117
7.220000    869.292908
7.230000    870.118225
7.240000    870.981506
7.250000    871.813293
7.260000    872.670959
7.270000    873.519653
7.280000    874.366455
7.290000    875.160767
7.300000    875.972229
7.310000    876.737427
7.320000    877.559998
7.330000    878.301636
7.340000    879.056335
7.350000    879.807617
7.360000    880.585388
7.370000    881.351013
7.380000    882.104309
7.390000    882.855408
7.400000    883.628723
7.410000    884.452209
7.420000    885.235718
7.430000    886.040710
7.440000    886.826782
7.450000    887.649109
7.460000    888.476501
7.470000    889.348694
7.480000    890.181641
7.490000    890.999023
7.500000    891.773132
7.510000    892.588501
7.520000    893.384644
7.530000    894.200562
7.540000    895.012024
7.550000    895.790161
7.560000    896.556335
7.570000    897.329712
7.580000    898.146545
7.590000    898.944458
7.600000    899.781921
7.610000    900.594666
7.620000    901.434570
7.630000    902.264099
7.640000    903.110168
7.650000    903.989990
7.660000    904.825928
7.670000    905.644348
7.680000    906.469788
7.690000    907.281128
7.700000    908.106262
7.710000    908.954285
7.720000    909.763123
7.730000    910.541870
7.740000    911.315857
7.750000    912.088562
7.760000    912.921143
7.770000    913.768494
7.780000    914.605286
7.790000    915.461670
7.800000    916.290955
7.810000    917.130310
7.820000    917.988708
7.830000    918.780334
7.840000    919.548340
7.850000    920.342834
7.860000    921.136047
7.870000    921.931458
7.880000    922.770508
7.890000    923.576172
7.900000    924.430420
7.910000    925.265503
7.920000    926.034912
7.930000    926.826538
7.940000    927.654846
7.950000    928.486755
7.960000    929.317017
7.970000    930.126099
7.980000    930.931458
7.990000    931.749268
8.000000    932.552612
8.010000    933.384583
8.020000    934.186035
8.030000    935.005676
8.040000    935.841553
8.050000    936.661438
8.060000    937.483521
8.070000    938.288879
8.080000    939.086853
8.090000    939.902039
8.100000    940.733887
8.110000    941.521179
8.120000    942.351074
8.130000    943.187805
8.140000    944.076111
8.150000    944.984009
8.160000    945.893005
8.170000    946.825317
8.180000    947.702637
8.190000    948.546326
8.200000    949.428345
8.210000    950.360596
8.220000    951.244324
8.230000    952.124329
8.240000    953.014832
8.250000    953.884521
8.260000    954.757690
8.270000    955.616943
8.280000    956.445312
8.290000    957.301331
8.300000    958.166077
8.310000    958.989990
8.320000    959.839478
8.330000    960.706116
8.340000    961.562988
8.350000    962.413391
8.360000    963.264709
8.370000    964.085388
8.380000    964.898987
8.390000    965.744141
8.400000    966.587463
8.410000    967.409851
8.420000    968.242676
8.430000    969.026611
8.440000    969.855347
8.450000    970.677551
8.460000    971.523254
8.470000    972.348999
8.480000    973.200562
8.490000    973.987610
8.500000    974.876587
8.510000    975.743042
8.520000    976.619080
8.530000    977.436890
8.540000    978.278259
8.550000    979.116821
8.560000    979.953186
8.570000    980.743408
8.580000    981.561707
8.590000    982.429138
8.600000    983.287231
8.610000    984.122986
8.620000    985.005371
8.630000    985.897827
8.640000    986.749329
8.650000    987.615417
8.660000    988.418213
