#  t (ns) MSD (A^2) D = 2.4730e-06 2.28e-08 cm^2/s nu = 9.0907e-01 1.27e-03
0.000000    -0.000129
0.010000    15.150317
0.020000    25.199833
0.030000    33.801052
0.040000    41.415108
0.050000    48.395939
0.060000    54.818348
0.070000    60.784386
0.080000    66.378967
0.090000    71.720772
0.100000    76.854942
0.110000    81.732834
0.120000    86.446640
0.130000    90.978584
0.140000    95.226158
0.150000    99.441650
0.160000    103.482246
0.170000    107.365738
0.180000    111.145683
0.190000    114.849030
0.200000    118.408882
0.210000    121.897400
0.220000    125.330589
0.230000    128.687607
0.240000    131.923645
0.250000    135.146347
0.260000    138.248779
0.270000    141.303452
0.280000    144.360809
0.290000    147.324448
0.300000    150.314423
0.310000    153.248703
0.320000    156.110703
0.330000    158.996124
0.340000    161.840439
0.350000    164.721802
0.360000    167.521973
0.370000    170.281616
0.380000    172.963760
0.390000    175.631271
0.400000    178.262177
0.410000    180.924118
0.420000    183.588898
0.430000    186.278046
0.440000    188.937836
0.450000    191.581146
0.460000    194.204803
0.470000    196.775085
0.480000    199.317856
0.490000    201.810593
0.500000    204.339371
0.510000    206.839783
0.520000    209.364975
0.530000    211.885651
0.540000    214.358353
0.550000    216.841171
0.560000    219.281281
0.570000    221.783600
0.580000    224.219223
0.590000    226.621353
0.600000    229.006027
0.610000    231.357071
0.620000    233.678635
0.630000    235.994232
0.640000    238.308258
0.650000    240.606644
0.660000    242.868317
0.670000    245.187241
0.680000    247.456940
0.690000    249.751312
0.700000    252.032288
0.710000    254.237030
0.720000    256.457123
0.730000    258.708038
0.740000    260.970276
0.750000    263.143921
0.760000    265.359009
0.770000    267.548950
0.780000    269.716858
0.790000    271.942474
0.800000    274.165710
0.810000    276.345367
0.820000    278.489655
0.830000    280.597748
0.840000    282.792175
0.850000    284.923096
0.860000    287.069824
0.870000    289.207611
0.880000    291.319641
0.890000    293.452057
0.900000    295.479187
0.910000    297.590881
0.920000    299.582977
0.930000    301.574768
0.940000    303.541382
0.950000    305.520142
0.960000    307.526733
0.970000    309.544800
0.980000    311.497162
0.990000    313.534790
1.000000    315.511627
1.010000    317.556488
1.020000    319.581909
1.030000    321.651306
1.040000    323.694183
1.050000    325.723236
1.060000    327.793549
1.070000    329.794006
1.080000    331.840179
1.090000    333.836182
1.100000    335.848755
1.110000    337.867889
1.120000    339.891846
1.130000    341.861511
1.140000    343.869324
1.150000    345.795990
1.160000    347.736938
1.170000    349.675964
1.180000    351.597778
1.190000    353.603180
1.200000    355.587738
1.210000    357.495575
1.220000    359.383331
1.230000    361.287720
1.240000    363.199158
1.250000    365.131378
1.260000    367.005096
1.270000    368.947388
1.280000    370.845520
1.290000    372.759796
1.300000    374.698853
1.310000    376.663330
1.320000    378.662933
1.330000    380.590240
1.340000    382.484802
1.350000    384.369537
1.360000    386.228699
1.370000    388.044250
1.380000    389.936188
1.390000    391.736359
1.400000    393.486633
1.410000    395.396790
1.420000    397.223755
1.430000    398.975464
1.440000    400.753204
1.450000    402.525848
1.460000    404.270996
1.470000    406.074677
1.480000    407.930786
1.490000    409.771667
1.500000    411.622681
1.510000    413.521912
1.520000    415.343475
1.530000    417.193176
1.540000    419.063995
1.550000    420.857452
1.560000    422.627625
1.570000    424.451263
1.580000    426.170837
1.590000    427.939148
1.600000    429.759277
1.610000    431.452179
1.620000    433.105499
1.630000    434.791443
1.640000    436.492401
1.650000    438.168396
1.660000    439.818695
1.670000    441.435272
1.680000    443.083344
1.690000    444.744446
1.700000    446.416138
1.710000    448.073334
1.720000    449.693481
1.730000    451.387024
1.740000    453.052612
1.750000    454.710449
1.760000    456.443787
1.770000    458.194946
1.780000    459.955109
1.790000    461.731201
1.800000    463.543152
1.810000    465.360870
1.820000    467.112122
1.830000    468.856842
1.840000    470.610260
1.850000    472.460083
1.860000    474.262543
1.870000    476.073853
1.880000    477.945801
1.890000    479.746368
1.900000    481.535095
1.910000    483.341400
1.920000    485.145203
1.930000    486.894867
1.940000    488.585754
1.950000    490.298981
1.960000    492.006012
1.970000    493.703430
1.980000    495.439880
1.990000    497.154572
2.000000    498.843323
2.010000    500.462952
2.020000    502.103821
2.030000    503.774933
2.040000    505.389404
2.050000    506.988037
2.060000    508.592316
2.070000    510.265747
2.080000    512.043396
2.090000    513.860168
2.100000    515.650635
2.110000    517.389221
2.120000    519.090698
2.130000    520.852051
2.140000    522.555969
2.150000    524.224854
2.160000    525.923584
2.170000    527.650208
2.180000    529.334961
2.190000    530.988586
2.200000    532.681885
2.210000    534.331726
2.220000    535.914856
2.230000    537.549316
2.240000    539.209351
2.250000    540.846619
2.260000    542.499939
2.270000    544.161926
2.280000    545.836365
2.290000    547.540466
2.300000    549.244324
2.310000    550.955261
2.320000    552.639160
2.330000    554.403564
2.340000    556.109253
2.350000    557.793762
2.360000    559.511169
2.370000    561.252625
2.380000    562.936279
2.390000    564.653320
2.400000    566.254089
2.410000    567.843689
2.420000    569.454590
2.430000    571.088928
2.440000    572.662598
2.450000    574.217224
2.460000    575.814026
2.470000    577.449097
2.480000    579.057434
2.490000    580.688110
2.500000    582.399414
2.510000    584.062805
2.520000    585.802368
2.530000    587.483459
2.540000    589.167236
2.550000    590.854980
2.560000    592.534180
2.570000    594.222900
2.580000    595.861755
2.590000    597.504761
2.600000    599.147400
2.610000    600.822205
2.620000    602.529724
2.630000    604.222778
2.640000    605.916748
2.650000    607.634338
2.660000    609.212585
2.670000    610.803589
2.680000    612.410034
2.690000    614.053284
2.700000    615.669739
2.710000    617.272644
2.720000    618.863770
2.730000    620.449951
2.740000    622.071228
2.750000    623.607910
2.760000    625.126221
2.770000    626.719910
2.780000    628.249084
2.790000    629.768555
2.800000    631.326538
2.810000    632.888550
2.820000    634.431335
2.830000    635.911926
2.840000    637.471375
2.850000    639.067078
2.860000    640.672852
2.870000    642.236328
2.880000    643.831848
2.890000    645.390564
2.900000    646.981628
2.910000    648.567627
2.920000    650.090759
2.930000    651.659424
2.940000    653.179504
2.950000    654.709534
2.960000    656.315796
2.970000    657.882629
2.980000    659.467896
2.990000    661.031738
3.000000    662.612305
3.010000    664.240234
3.020000    665.849121
3.030000    667.467041
3.040000    669.118225
3.050000    670.710876
3.060000    672.328186
3.070000    673.860779
3.080000    675.456543
3.090000    676.975891
3.100000    678.519470
3.110000    679.995178
3.120000    681.439270
3.130000    682.941956
3.140000    684.427917
3.150000    685.989319
3.160000    687.560364
3.170000    689.142456
3.180000    690.701172
3.190000    692.216553
3.200000    693.836365
3.210000    695.536682
3.220000    697.218384
3.230000    698.876099
3.240000    700.513062
3.250000    702.191711
3.260000    703.849609
3.270000    705.437378
3.280000    707.051941
3.290000    708.671387
3.300000    710.230530
3.310000    711.893555
3.320000    713.591919
3.330000    715.270630
3.340000    716.938354
3.350000    718.642700
3.360000    720.302246
3.370000    721.943604
3.380000    723.628113
3.390000    725.315918
3.400000    726.986572
3.410000    728.639954
3.420000    730.318420
3.430000    732.011047
3.440000    733.666504
3.450000    735.368408
3.460000    737.076477
3.470000    738.777100
3.480000    740.379822
3.490000    741.986694
3.500000    743.608643
3.510000    745.285950
3.520000    746.930481
3.530000    748.551636
3.540000    750.176880
3.550000    751.783569
3.560000    753.347290
3.570000    754.949158
3.580000    756.528137
3.590000    758.036072
3.600000    759.574463
3.610000    761.092712
3.620000    762.685547
3.630000    764.321472
3.640000    765.906372
3.650000    767.505737
3.660000    769.070557
3.670000    770.601746
3.680000    772.131409
3.690000    773.692810
3.700000    775.226257
3.710000    776.776428
3.720000    778.298645
3.730000    779.848572
3.740000    781.347534
3.750000    782.818665
3.760000    784.317383
3.770000    785.758545
3.780000    787.234924
3.790000    788.769775
3.800000    790.306396
3.810000    791.845276
3.820000    793.418823
3.830000    794.981812
3.840000    796.482788
3.850000    797.959290
3.860000    799.477295
3.870000    801.073730
3.880000    802.632568
3.890000    804.182373
3.900000    805.785645
3.910000    807.415405
3.920000    809.012756
3.930000    810.585266
3.940000    812.130127
3.950000    813.593933
3.960000    815.080139
3.970000    816.648560
3.980000    818.183350
3.990000    819.722473
4.000000    821.295410
4.010000    822.900085
4.020000    824.474426
4.030000    826.006226
4.040000    827.530090
4.050000    829.046204
4.060000    830.580566
4.070000    832.130493
4.080000    833.687805
4.090000    835.270630
4.100000    836.850342
4.110000    838.460876
4.120000    840.068787
4.130000    841.718140
4.140000    843.377441
4.150000    845.024536
4.160000    846.667114
4.170000    848.307617
4.180000    850.016785
4.190000    851.737610
4.200000    853.418213
4.210000    855.088989
4.220000    856.752686
4.230000    858.400757
4.240000    860.058350
4.250000    861.657104
4.260000    863.231995
4.270000    864.793640
4.280000    866.359619
4.290000    867.916199
4.300000    869.480774
4.310000    870.965881
4.320000    872.455444
4.330000    873.943359
4.340000    875.461487
4.350000    876.971375
4.360000    878.503357
4.370000    880.021912
4.380000    881.508301
4.390000    883.028503
4.400000    884.541016
4.410000    885.999695
4.420000    887.498169
4.430000    888.993530
4.440000    890.483154
4.450000    892.017578
4.460000    893.519714
4.470000    894.978088
4.480000    896.419189
4.490000    897.870789
4.500000    899.273193
4.510000    900.723328
4.520000    902.161194
4.530000    903.630737
4.540000    905.085388
4.550000    906.517090
4.560000    907.920349
4.570000    909.342041
4.580000    910.771301
4.590000    912.185913
4.600000    913.599915
4.610000    915.057556
4.620000    916.490540
4.630000    917.931213
4.640000    919.359375
4.650000    920.764221
4.660000    922.238098
4.670000    923.682739
4.680000    925.092957
4.690000    926.464539
4.700000    927.863892
4.710000    929.246277
4.720000    930.699524
4.730000    932.146545
4.740000    933.582581
4.750000    935.004150
4.760000    936.504517
4.770000    937.988464
4.780000    939.444702
4.790000    940.852600
4.800000    942.351135
4.810000    943.869995
4.820000    945.382324
4.830000    946.842834
4.840000    948.264709
4.850000    949.670349
4.860000    951.095642
4.870000    952.520752
4.880000    953.935303
4.890000    955.352539
4.900000    956.792847
4.910000    958.270020
4.920000    959.790405
4.930000    961.280212
4.940000    962.727417
4.950000    964.206421
4.960000    965.655334
4.970000    967.148438
4.980000    968.704895
4.990000    970.218445
5.000000    971.707825
5.010000    973.140076
5.020000    974.542542
5.030000    975.940247
5.040000    977.310730
5.050000    978.721741
5.060000    980.039124
5.070000    981.401001
5.080000    982.787292
5.090000    984.118347
5.100000    985.496582
5.110000    986.905212
5.120000    988.360352
5.130000    989.773193
5.140000    991.197449
5.150000    992.642517
5.160000    994.054443
5.170000    995.387329
5.180000    996.774536
5.190000    998.174255
5.200000    999.657104
5.210000    1001.058838
5.220000    1002.479919
5.230000    1003.930725
5.240000    1005.291687
5.250000    1006.587036
5.260000    1007.861389
5.270000    1009.179382
5.280000    1010.458069
5.290000    1011.703064
5.300000    1012.934998
5.310000    1014.114075
5.320000    1015.369507
5.330000    1016.616760
5.340000    1017.863342
5.350000    1019.012329
5.360000    1020.184387
5.370000    1021.402710
5.380000    1022.634338
5.390000    1023.895081
5.400000    1025.175659
5.410000    1026.483032
5.420000    1027.714600
5.430000    1029.005005
5.440000    1030.337646
5.450000    1031.672729
5.460000    1033.062012
5.470000    1034.436279
5.480000    1035.827637
5.490000    1037.206421
5.500000    1038.539917
5.510000    1039.898682
5.520000    1041.181274
5.530000    1042.481567
5.540000    1043.804321
5.550000    1045.075073
5.560000    1046.323975
5.570000    1047.572632
5.580000    1048.872925
5.590000    1050.164551
5.600000    1051.505249
5.610000    1052.873169
5.620000    1054.226196
5.630000    1055.544922
5.640000    1056.865845
5.650000    1058.219360
5.660000    1059.514771
5.670000    1060.854614
5.680000    1062.183838
5.690000    1063.578979
5.700000    1064.961548
5.710000    1066.285034
5.720000    1067.640991
5.730000    1069.015625
5.740000    1070.404663
5.750000    1071.765259
5.760000    1073.135010
5.770000    1074.447144
5.780000    1075.880615
5.790000    1077.279297
5.800000    1078.703003
5.810000    1080.255737
5.820000    1081.711792
5.830000    1083.176147
5.840000    1084.629272
5.850000    1086.035278
5.860000    1087.456787
5.870000    1088.814209
5.880000    1090.193359
5.890000    1091.537842
5.900000    1092.879395
5.910000    1094.201660
5.920000    1095.567017
5.930000    1096.875732
5.940000    1098.152100
5.950000    1099.481689
5.960000    1100.763916
5.970000    1102.088379
5.980000    1103.375488
5.990000    1104.648682
6.000000    1105.946777
6.010000    1107.272827
6.020000    1108.531250
6.030000    1109.781494
6.040000    1111.053711
6.050000    1112.334717
6.060000    1113.619629
6.070000    1114.830078
6.080000    1116.111572
6.090000    1117.398804
6.100000    1118.698853
6.110000    1119.995483
6.120000    1121.316528
6.130000    1122.645874
6.140000    1123.987671
6.150000    1125.410034
6.160000    1126.815430
6.170000    1128.162354
6.180000    1129.565674
6.190000    1131.001465
6.200000    1132.348389
6.210000    1133.741089
6.220000    1135.138428
6.230000    1136.532959
6.240000    1137.932129
6.250000    1139.335571
6.260000    1140.796143
6.270000    1142.275391
6.280000    1143.739136
6.290000    1145.257568
6.300000    1146.749390
6.310000    1148.255249
6.320000    1149.702881
6.330000    1151.216431
6.340000    1152.764526
6.350000    1154.249756
6.360000    1155.728760
6.370000    1157.149902
6.380000    1158.507202
6.390000    1159.911133
6.400000    1161.324219
6.410000    1162.763550
6.420000    1164.170410
6.430000    1165.529053
6.440000    1166.911621
6.450000    1168.307129
6.460000    1169.749390
6.470000    1171.213623
6.480000    1172.678711
6.490000    1174.117554
6.500000    1175.569824
6.510000    1176.984497
6.520000    1178.443726
6.530000    1179.923828
6.540000    1181.393066
6.550000    1182.918457
6.560000    1184.392334
6.570000    1185.885498
6.580000    1187.394165
6.590000    1188.898804
6.600000    1190.467896
6.610000    1192.044189
6.620000    1193.482178
6.630000    1194.891113
6.640000    1196.295654
6.650000    1197.655151
6.660000    1199.069702
6.670000    1200.427002
6.680000    1201.759644
6.690000    1203.110352
6.700000    1204.459229
6.710000    1205.783081
6.720000    1207.155762
6.730000    1208.575806
6.740000    1209.937012
6.750000    1211.263306
6.760000    1212.609253
6.770000    1213.935669
6.780000    1215.262085
6.790000    1216.664429
6.800000    1217.991577
6.810000    1219.362549
6.820000    1220.723145
6.830000    1222.144165
6.840000    1223.512573
6.850000    1224.931274
6.860000    1226.318848
6.870000    1227.695679
6.880000    1229.084351
6.890000    1230.448242
6.900000    1231.815552
6.910000    1233.211670
6.920000    1234.563599
6.930000    1235.893066
6.940000    1237.283691
6.950000    1238.722534
6.960000    1240.130859
6.970000    1241.570190
6.980000    1243.046631
6.990000    1244.545044
7.000000    1246.033447
7.010000    1247.534668
7.020000    1249.008545
7.030000    1250.444702
7.040000    1251.913208
7.050000    1253.396851
7.060000    1254.915405
7.070000    1256.476685
7.080000    1257.979248
7.090000    1259.494995
7.100000    1261.019287
7.110000    1262.612915
7.120000    1264.140625
7.130000    1265.599121
7.140000    1267.061279
7.150000    1268.485596
7.160000    1269.885254
7.170000    1271.277344
7.180000    1272.741943
7.190000    1274.170288
7.200000    1275.641357
7.210000    1277.086060
7.220000    1278.451294
7.230000    1279.902100
7.240000    1281.247681
7.250000    1282.587280
7.260000    1283.918091
7.270000    1285.284058
7.280000    1286.598633
7.290000    1287.895874
7.300000    1289.227295
7.310000    1290.566040
7.320000    1291.841675
7.330000    1293.128418
7.340000    1294.456055
7.350000    1295.801147
7.360000    1297.195801
7.370000    1298.509888
7.380000    1299.797974
7.390000    1301.116333
7.400000    1302.419556
7.410000    1303.759644
7.420000    1305.081177
7.430000    1306.405029
7.440000    1307.754517
7.450000    1309.132446
7.460000    1310.526001
7.470000    1311.924194
7.480000    1313.372314
7.490000    1314.817749
7.500000    1316.313477
7.510000    1317.736694
7.520000    1319.171387
7.530000    1320.655884
7.540000    1322.086670
7.550000    1323.585083
7.560000    1325.043213
7.570000    1326.557495
7.580000    1327.993042
7.590000    1329.388550
7.600000    1330.739502
7.610000    1332.163452
7.620000    1333.593872
7.630000    1335.045532
7.640000    1336.483032
7.650000    1337.910645
7.660000    1339.335449
7.670000    1340.756104
7.680000    1342.129395
7.690000    1343.494385
7.700000    1344.841675
7.710000    1346.203125
7.720000    1347.545654
7.730000    1348.929810
7.740000    1350.380737
7.750000    1351.760742
7.760000    1353.215698
7.770000    1354.672363
7.780000    1356.121948
7.790000    1357.620361
7.800000    1359.119385
7.810000    1360.576904
7.820000    1362.017700
7.830000    1363.490601
7.840000    1364.963745
7.850000    1366.405273
7.860000    1367.837036
7.870000    1369.230469
7.880000    1370.632935
7.890000    1372.065552
7.900000    1373.484497
7.910000    1374.880981
7.920000    1376.274414
7.930000    1377.787476
7.940000    1379.279297
7.950000    1380.757324
7.960000    1382.284424
7.970000    1383.796265
7.980000    1385.326904
7.990000    1386.883911
8.000000    1388.352661
8.010000    1389.823242
8.020000    1391.360962
8.030000    1392.877686
8.040000    1394.436890
8.050000    1395.962769
8.060000    1397.518921
8.070000    1399.075684
8.080000    1400.622070
8.090000    1402.213257
8.100000    1403.797485
8.110000    1405.417847
8.120000    1406.923950
8.130000    1408.499634
8.140000    1410.026733
8.150000    1411.540283
8.160000    1413.037231
8.170000    1414.575928
8.180000    1416.013428
8.190000    1417.536133
8.200000    1419.061523
8.210000    1420.546387
8.220000    1422.082153
8.230000    1423.588989
8.240000    1425.187988
8.250000    1426.718994
8.260000    1428.227905
8.270000    1429.700073
8.280000    1431.151001
8.290000    1432.627197
8.300000    1434.092285
8.310000    1435.544678
8.320000    1436.970581
8.330000    1438.367310
8.340000    1439.811646
8.350000    1441.253174
8.360000    1442.716064
8.370000    1444.177490
8.380000    1445.639038
8.390000    1447.044678
8.400000    1448.483032
8.410000    1449.908691
8.420000    1451.296753
8.430000    1452.669434
8.440000    1454.028564
8.450000    1455.458984
8.460000    1456.909424
8.470000    1458.399536
8.480000    1459.814209
8.490000    1461.238403
8.500000    1462.646729
8.510000    1464.032104
