#  t (ns) MSD (A^2) D = 2.0196e-06 5.17e-09 cm^2/s nu = 9.1747e-01 5.53e-04
0.000000    -0.000160
0.010000    14.318961
0.020000    23.656828
0.030000    31.568598
0.040000    38.625820
0.050000    45.067219
0.060000    51.009956
0.070000    56.638859
0.080000    61.939884
0.090000    66.926300
0.100000    71.715546
0.110000    76.298584
0.120000    80.728035
0.130000    85.049255
0.140000    89.174751
0.150000    93.145958
0.160000    96.948448
0.170000    100.721466
0.180000    104.327957
0.190000    107.867287
0.200000    111.314522
0.210000    114.726974
0.220000    118.049973
0.230000    121.396347
0.240000    124.616676
0.250000    127.723389
0.260000    130.737747
0.270000    133.642731
0.280000    136.453033
0.290000    139.270203
0.300000    141.982132
0.310000    144.643250
0.320000    147.283661
0.330000    149.946045
0.340000    152.580811
0.350000    155.157486
0.360000    157.710648
0.370000    160.272141
0.380000    162.769958
0.390000    165.254410
0.400000    167.708069
0.410000    170.093460
0.420000    172.481674
0.430000    174.830338
0.440000    177.133011
0.450000    179.378006
0.460000    181.602768
0.470000    183.780334
0.480000    185.979263
0.490000    188.125854
0.500000    190.311493
0.510000    192.466660
0.520000    194.614532
0.530000    196.807114
0.540000    198.919327
0.550000    201.012009
0.560000    203.077621
0.570000    205.187088
0.580000    207.281143
0.590000    209.385376
0.600000    211.412247
0.610000    213.426437
0.620000    215.448807
0.630000    217.415131
0.640000    219.406845
0.650000    221.386108
0.660000    223.392303
0.670000    225.332550
0.680000    227.237900
0.690000    229.161499
0.700000    231.092575
0.710000    233.038406
0.720000    234.933487
0.730000    236.855194
0.740000    238.712006
0.750000    240.664352
0.760000    242.627090
0.770000    244.489441
0.780000    246.391983
0.790000    248.340668
0.800000    250.286224
0.810000    252.185272
0.820000    254.087646
0.830000    255.951065
0.840000    257.787109
0.850000    259.608551
0.860000    261.410095
0.870000    263.244385
0.880000    265.054016
0.890000    266.965027
0.900000    268.791473
0.910000    270.707123
0.920000    272.567596
0.930000    274.425720
0.940000    276.240295
0.950000    278.095276
0.960000    279.953613
0.970000    281.806458
0.980000    283.612335
0.990000    285.381714
1.000000    287.172150
1.010000    288.835480
1.020000    290.554443
1.030000    292.263977
1.040000    293.954712
1.050000    295.611176
1.060000    297.305786
1.070000    298.993652
1.080000    300.664154
1.090000    302.351349
1.100000    303.994171
1.110000    305.671448
1.120000    307.272003
1.130000    308.890625
1.140000    310.616882
1.150000    312.298859
1.160000    313.965363
1.170000    315.655090
1.180000    317.371460
1.190000    319.094666
1.200000    320.786530
1.210000    322.552399
1.220000    324.306549
1.230000    326.046051
1.240000    327.822418
1.250000    329.577087
1.260000    331.294800
1.270000    333.015137
1.280000    334.712769
1.290000    336.380157
1.300000    338.007935
1.310000    339.651123
1.320000    341.342041
1.330000    342.986542
1.340000    344.636353
1.350000    346.300781
1.360000    347.893616
1.370000    349.513947
1.380000    351.117279
1.390000    352.712280
1.400000    354.276886
1.410000    355.852173
1.420000    357.394623
1.430000    358.939026
1.440000    360.470398
1.450000    362.113739
1.460000    363.742767
1.470000    365.369171
1.480000    367.020782
1.490000    368.694580
1.500000    370.338043
1.510000    371.903259
1.520000    373.505463
1.530000    375.063049
1.540000    376.601959
1.550000    378.145782
1.560000    379.712952
1.570000    381.273987
1.580000    382.812988
1.590000    384.285156
1.600000    385.754425
1.610000    387.256744
1.620000    388.729431
1.630000    390.202881
1.640000    391.676361
1.650000    393.169189
1.660000    394.666260
1.670000    396.139557
1.680000    397.568604
1.690000    399.022034
1.700000    400.512817
1.710000    401.990112
1.720000    403.485718
1.730000    404.970612
1.740000    406.418976
1.750000    407.828644
1.760000    409.332550
1.770000    410.797058
1.780000    412.269836
1.790000    413.716553
1.800000    415.191376
1.810000    416.659210
1.820000    418.149292
1.830000    419.591125
1.840000    421.029755
1.850000    422.492096
1.860000    423.936005
1.870000    425.349091
1.880000    426.745697
1.890000    428.140411
1.900000    429.542847
1.910000    430.911652
1.920000    432.249878
1.930000    433.597687
1.940000    434.974365
1.950000    436.342773
1.960000    437.711975
1.970000    439.153198
1.980000    440.544647
1.990000    442.049774
2.000000    443.486481
2.010000    444.961639
2.020000    446.426361
2.030000    447.797028
2.040000    449.200134
2.050000    450.604736
2.060000    451.994080
2.070000    453.366302
2.080000    454.744873
2.090000    456.164093
2.100000    457.627899
2.110000    459.042572
2.120000    460.471130
2.130000    461.954224
2.140000    463.363831
2.150000    464.812866
2.160000    466.280457
2.170000    467.743988
2.180000    469.161926
2.190000    470.689209
2.200000    472.156219
2.210000    473.634369
2.220000    475.086609
2.230000    476.526306
2.240000    477.981201
2.250000    479.449707
2.260000    480.873535
2.270000    482.291901
2.280000    483.670654
2.290000    485.087067
2.300000    486.523499
2.310000    487.921539
2.320000    489.314545
2.330000    490.713562
2.340000    492.061798
2.350000    493.376190
2.360000    494.771545
2.370000    496.109283
2.380000    497.484161
2.390000    498.831299
2.400000    500.190857
2.410000    501.554932
2.420000    502.915192
2.430000    504.296875
2.440000    505.627136
2.450000    506.985199
2.460000    508.361938
2.470000    509.700989
2.480000    511.075012
2.490000    512.473938
2.500000    513.923950
2.510000    515.363037
2.520000    516.820984
2.530000    518.219055
2.540000    519.577087
2.550000    520.971252
2.560000    522.340576
2.570000    523.709167
2.580000    525.043762
2.590000    526.366699
2.600000    527.694702
2.610000    529.073608
2.620000    530.449524
2.630000    531.843201
2.640000    533.232361
2.650000    534.551270
2.660000    535.950989
2.670000    537.340576
2.680000    538.758301
2.690000    540.183472
2.700000    541.681763
2.710000    543.143188
2.720000    544.557617
2.730000    545.948975
2.740000    547.320984
2.750000    548.717346
2.760000    550.030640
2.770000    551.389526
2.780000    552.773926
2.790000    554.167786
2.800000    555.542664
2.810000    556.907288
2.820000    558.271118
2.830000    559.617065
2.840000    560.960205
2.850000    562.264526
2.860000    563.578735
2.870000    564.892822
2.880000    566.326599
2.890000    567.679443
2.900000    569.066650
2.910000    570.418335
2.920000    571.750061
2.930000    573.078308
2.940000    574.482178
2.950000    575.815552
2.960000    577.124939
2.970000    578.478027
2.980000    579.823120
2.990000    581.159546
3.000000    582.566833
3.010000    583.937561
3.020000    585.332153
3.030000    586.680237
3.040000    588.035461
3.050000    589.410400
3.060000    590.783630
3.070000    592.115234
3.080000    593.470947
3.090000    594.760925
3.100000    595.996826
3.110000    597.227112
3.120000    598.469543
3.130000    599.755676
3.140000    600.994202
3.150000    602.224915
3.160000    603.417175
3.170000    604.649841
3.180000    605.895569
3.190000    607.209961
3.200000    608.466858
3.210000    609.670776
3.220000    610.878845
3.230000    612.075500
3.240000    613.332703
3.250000    614.542175
3.260000    615.726257
3.270000    616.849426
3.280000    618.025818
3.290000    619.179504
3.300000    620.372559
3.310000    621.607666
3.320000    622.856750
3.330000    624.082092
3.340000    625.318420
3.350000    626.556702
3.360000    627.708740
3.370000    628.794617
3.380000    630.000916
3.390000    631.173096
3.400000    632.329834
3.410000    633.502686
3.420000    634.687561
3.430000    635.852295
3.440000    637.083252
3.450000    638.306946
3.460000    639.524231
3.470000    640.735229
3.480000    641.971191
3.490000    643.202881
3.500000    644.448181
3.510000    645.729553
3.520000    647.034424
3.530000    648.290649
3.540000    649.618225
3.550000    650.870056
3.560000    652.184509
3.570000    653.400208
3.580000    654.604126
3.590000    655.806396
3.600000    657.050476
3.610000    658.293335
3.620000    659.593933
3.630000    660.862671
3.640000    662.124512
3.650000    663.353455
3.660000    664.599487
3.670000    665.845154
3.680000    667.093140
3.690000    668.314819
3.700000    669.511169
3.710000    670.800415
3.720000    672.044250
3.730000    673.319092
3.740000    674.570496
3.750000    675.736145
3.760000    676.997742
3.770000    678.267212
3.780000    679.491150
3.790000    680.696106
3.800000    681.851868
3.810000    683.076050
3.820000    684.291870
3.830000    685.465820
3.840000    686.630310
3.850000    687.829163
3.860000    689.040894
3.870000    690.207336
3.880000    691.349060
3.890000    692.529297
3.900000    693.594421
3.910000    694.622009
3.920000    695.677063
3.930000    696.803101
3.940000    697.901489
3.950000    699.026855
3.960000    700.121704
3.970000    701.232849
3.980000    702.348877
3.990000    703.430542
4.000000    704.539978
4.010000    705.710693
4.020000    706.892700
4.030000    708.022339
4.040000    709.154175
4.050000    710.270447
4.060000    711.447693
4.070000    712.616333
4.080000    713.756104
4.090000    714.913940
4.100000    716.127625
4.110000    717.336365
4.120000    718.548645
4.130000    719.704773
4.140000    720.857239
4.150000    721.938416
4.160000    723.104248
4.170000    724.281738
4.180000    725.491333
4.190000    726.703491
4.200000    727.831909
4.210000    728.978638
4.220000    730.130493
4.230000    731.270996
4.240000    732.433411
4.250000    733.549011
4.260000    734.702026
4.270000    735.891785
4.280000    737.073486
4.290000    738.230225
4.300000    739.447693
4.310000    740.675293
4.320000    741.914246
4.330000    743.160767
4.340000    744.352600
4.350000    745.542297
4.360000    746.693665
4.370000    747.866394
4.380000    749.008362
4.390000    750.229736
4.400000    751.437683
4.410000    752.589172
4.420000    753.779114
4.430000    754.983826
4.440000    756.182922
4.450000    757.335388
4.460000    758.455139
4.470000    759.614929
4.480000    760.813843
4.490000    762.008728
4.500000    763.234070
4.510000    764.414917
4.520000    765.609802
4.530000    766.752991
4.540000    767.913696
4.550000    769.074097
4.560000    770.274231
4.570000    771.471619
4.580000    772.647400
4.590000    773.803894
4.600000    774.958069
4.610000    776.160095
4.620000    777.339111
4.630000    778.495972
4.640000    779.649475
4.650000    780.812622
4.660000    781.967834
4.670000    783.133972
4.680000    784.273071
4.690000    785.381653
4.700000    786.516785
4.710000    787.687073
4.720000    788.781860
4.730000    789.859924
4.740000    790.985779
4.750000    792.105530
4.760000    793.261169
4.770000    794.474304
4.780000    795.669922
4.790000    796.859314
4.800000    798.084778
4.810000    799.249023
4.820000    800.361206
4.830000    801.521118
4.840000    802.722900
4.850000    803.889832
4.860000    805.110107
4.870000    806.269226
4.880000    807.393921
4.890000    808.520935
4.900000    809.727661
4.910000    810.918335
4.920000    812.060181
4.930000    813.209412
4.940000    814.276611
4.950000    815.350464
4.960000    816.462769
4.970000    817.523987
4.980000    818.535767
4.990000    819.541138
5.000000    820.593628
5.010000    821.696106
5.020000    822.745544
5.030000    823.781738
5.040000    824.855713
5.050000    825.907654
5.060000    826.924744
5.070000    827.992432
5.080000    829.041016
5.090000    830.040710
5.100000    831.042908
5.110000    832.047791
5.120000    833.041992
5.130000    834.119934
5.140000    835.188049
5.150000    836.196472
5.160000    837.175598
5.170000    838.198669
5.180000    839.270325
5.190000    840.284607
5.200000    841.302979
5.210000    842.292114
5.220000    843.320435
5.230000    844.376465
5.240000    845.379456
5.250000    846.356201
5.260000    847.348755
5.270000    848.324097
5.280000    849.356506
5.290000    850.434753
5.300000    851.482483
5.310000    852.538391
5.320000    853.659302
5.330000    854.766418
5.340000    855.834045
5.350000    856.951965
5.360000    858.086609
5.370000    859.226562
5.380000    860.309814
5.390000    861.412842
5.400000    862.499023
5.410000    863.631226
5.420000    864.780823
5.430000    865.911072
5.440000    867.023132
5.450000    868.126099
5.460000    869.246704
5.470000    870.391479
5.480000    871.520142
5.490000    872.661316
5.500000    873.863770
5.510000    875.073120
5.520000    876.269409
5.530000    877.439148
5.540000    878.597351
5.550000    879.754272
5.560000    880.929810
5.570000    882.137024
5.580000    883.293640
5.590000    884.495422
5.600000    885.651794
5.610000    886.881165
5.620000    888.054504
5.630000    889.198303
5.640000    890.403809
5.650000    891.577759
5.660000    892.805359
5.670000    894.048950
5.680000    895.221985
5.690000    896.407715
5.700000    897.597351
5.710000    898.703064
5.720000    899.850342
5.730000    900.998535
5.740000    902.186035
5.750000    903.325134
5.760000    904.440735
5.770000    905.535095
5.780000    906.594482
5.790000    907.693176
5.800000    908.838989
5.810000    909.958862
5.820000    911.111572
5.830000    912.143677
5.840000    913.228943
5.850000    914.323425
5.860000    915.461609
5.870000    916.621033
5.880000    917.722839
5.890000    918.808105
5.900000    919.978455
5.910000    921.059753
5.920000    922.111877
5.930000    923.160522
5.940000    924.221558
5.950000    925.298828
5.960000    926.321960
5.970000    927.426025
5.980000    928.520325
5.990000    929.665466
6.000000    930.772034
6.010000    931.927979
6.020000    933.067200
6.030000    934.256287
6.040000    935.423279
6.050000    936.591370
6.060000    937.712341
6.070000    938.755249
6.080000    939.830444
6.090000    940.951599
6.100000    942.079590
6.110000    943.217041
6.120000    944.324524
6.130000    945.459106
6.140000    946.616882
6.150000    947.765137
6.160000    948.925110
6.170000    950.043518
6.180000    951.114563
6.190000    952.182007
6.200000    953.250061
6.210000    954.262756
6.220000    955.224915
6.230000    956.234741
6.240000    957.289307
6.250000    958.303284
6.260000    959.319458
6.270000    960.402588
6.280000    961.468445
6.290000    962.533813
6.300000    963.637146
6.310000    964.708435
6.320000    965.755188
6.330000    966.769104
6.340000    967.760315
6.350000    968.797241
6.360000    969.844116
6.370000    970.917480
6.380000    971.991150
6.390000    973.057800
6.400000    974.142578
6.410000    975.225037
6.420000    976.287964
6.430000    977.449646
6.440000    978.560181
6.450000    979.642151
6.460000    980.790283
6.470000    981.879822
6.480000    982.976990
6.490000    984.118958
6.500000    985.295044
6.510000    986.475952
6.520000    987.669556
6.530000    988.832703
6.540000    990.104309
6.550000    991.386780
6.560000    992.699463
6.570000    993.974243
6.580000    995.219666
6.590000    996.455078
6.600000    997.729187
6.610000    998.946106
6.620000    1000.173279
6.630000    1001.416687
6.640000    1002.717346
6.650000    1003.981140
6.660000    1005.301392
6.670000    1006.594055
6.680000    1007.861450
6.690000    1009.149780
6.700000    1010.374573
6.710000    1011.624512
6.720000    1012.823486
6.730000    1014.007874
6.740000    1015.188232
6.750000    1016.323059
6.760000    1017.426208
6.770000    1018.563904
6.780000    1019.697693
6.790000    1020.825500
6.800000    1021.885010
6.810000    1022.990112
6.820000    1024.087402
6.830000    1025.244995
6.840000    1026.424805
6.850000    1027.595947
6.860000    1028.801270
6.870000    1029.984985
6.880000    1031.156982
6.890000    1032.343506
6.900000    1033.520508
6.910000    1034.691040
6.920000    1035.837036
6.930000    1037.032959
6.940000    1038.191040
6.950000    1039.316162
6.960000    1040.384033
6.970000    1041.429932
6.980000    1042.465454
6.990000    1043.543335
7.000000    1044.694214
7.010000    1045.865845
7.020000    1047.055908
7.030000    1048.216187
7.040000    1049.382080
7.050000    1050.595215
7.060000    1051.791870
7.070000    1052.925537
7.080000    1054.072144
7.090000    1055.201416
7.100000    1056.351807
7.110000    1057.500366
7.120000    1058.661987
7.130000    1059.882080
7.140000    1061.126099
7.150000    1062.331909
7.160000    1063.513794
7.170000    1064.710083
7.180000    1065.884644
7.190000    1067.039307
7.200000    1068.232788
7.210000    1069.528198
7.220000    1070.767822
7.230000    1071.980469
7.240000    1073.154541
7.250000    1074.307983
7.260000    1075.521973
7.270000    1076.701050
7.280000    1077.861694
7.290000    1079.091553
7.300000    1080.283447
7.310000    1081.439819
7.320000    1082.571411
7.330000    1083.779785
7.340000    1085.005371
7.350000    1086.226807
7.360000    1087.443359
7.370000    1088.625122
7.380000    1089.836426
7.390000    1091.000732
7.400000    1092.191162
7.410000    1093.390015
7.420000    1094.581665
7.430000    1095.721680
7.440000    1096.984131
7.450000    1098.174927
7.460000    1099.327759
7.470000    1100.472290
7.480000    1101.625000
7.490000    1102.799683
7.500000    1103.938232
7.510000    1105.119385
7.520000    1106.334961
7.530000    1107.487793
7.540000    1108.641602
7.550000    1109.694092
7.560000    1110.863281
7.570000    1111.958130
7.580000    1113.084839
7.590000    1114.253296
7.600000    1115.391357
7.610000    1116.522583
7.620000    1117.656982
7.630000    1118.785889
7.640000    1119.932617
7.650000    1121.052979
7.660000    1122.151001
7.670000    1123.304199
7.680000    1124.429443
7.690000    1125.565674
7.700000    1126.703125
7.710000    1127.859253
7.720000    1128.987671
7.730000    1130.073364
7.740000    1131.102173
7.750000    1132.190796
7.760000    1133.376221
7.770000    1134.554321
7.780000    1135.687134
7.790000    1136.755371
7.800000    1137.895386
7.810000    1139.082153
7.820000    1140.265381
7.830000    1141.332764
7.840000    1142.445190
7.850000    1143.546387
7.860000    1144.568115
7.870000    1145.704956
7.880000    1146.839233
7.890000    1148.042969
7.900000    1149.163574
7.910000    1150.329346
7.920000    1151.506104
7.930000    1152.681885
7.940000    1153.857910
7.950000    1155.091675
7.960000    1156.247925
7.970000    1157.452148
7.980000    1158.669556
7.990000    1159.902222
8.000000    1161.170288
8.010000    1162.428223
8.020000    1163.680664
8.030000    1164.891968
8.040000    1166.128174
8.050000    1167.407227
8.060000    1168.590454
8.070000    1169.836548
8.080000    1171.030518
8.090000    1172.259399
8.100000    1173.436646
8.110000    1174.588135
8.120000    1175.687622
8.130000    1176.784790
8.140000    1177.925049
8.150000    1179.113892
8.160000    1180.292480
8.170000    1181.425781
8.180000    1182.550903
8.190000    1183.667603
8.200000    1184.775879
8.210000    1185.903320
8.220000    1187.135498
8.230000    1188.342773
8.240000    1189.531250
8.250000    1190.742432
8.260000    1191.993408
8.270000    1193.189453
8.280000    1194.373291
8.290000    1195.528320
8.300000    1196.713379
8.310000    1197.890503
8.320000    1199.034790
8.330000    1200.180420
8.340000    1201.330200
8.350000    1202.498779
8.360000    1203.680176
8.370000    1204.887451
8.380000    1206.070190
8.390000    1207.301147
8.400000    1208.490845
8.410000    1209.636963
8.420000    1210.853882
8.430000    1212.108398
8.440000    1213.292725
8.450000    1214.479126
8.460000    1215.666626
8.470000    1216.898926
8.480000    1218.052246
8.490000    1219.142822
8.500000    1220.233643
8.510000    1221.300293
8.520000    1222.386841
8.530000    1223.479492
8.540000    1224.673218
8.550000    1225.777466
8.560000    1226.936157
8.570000    1228.122803
